cycle number,Ewe/V
1,2.172580
2,2.168080
3,2.164930
4,2.162350
5,2.160270
6,2.158360
7,2.156890
8,2.155630
9,2.154310
10,2.153360
11,2.152270
12,2.151370
13,2.150610
14,2.149770
15,2.149160
16,2.148510
17,2.147840
18,2.147250
19,2.146690
20,2.146200
21,2.145600
22,2.145200
23,2.144920
24,2.144570
25,2.143980
26,2.143600
27,2.143330
28,2.142890
29,2.142530
30,2.142170
31,2.141920
32,2.141630
33,2.141350
34,2.141040
35,2.140680
36,2.140350
37,2.140330
38,2.140030
39,2.139690
40,2.139590
41,2.139320
42,2.139040
43,2.138850
44,2.138540
45,2.138290
46,2.138120
47,2.137990
48,2.137780
49,2.137570
50,2.137340
51,2.137220
52,2.137010
53,2.136820
54,2.136610
55,2.136480
56,2.136290
57,2.136130
58,2.135980
59,2.135620
60,2.135640
61,2.135560
62,2.135350
63,2.135010
64,2.135160
65,2.134870
66,2.134740
67,2.134610
68,2.134400
69,2.134260
70,2.134110
71,2.133960
72,2.133820
73,2.133710
74,2.133670
75,2.133370
76,2.133420
77,2.133190
78,2.133120
79,2.132960
80,2.132890
81,2.132720
82,2.132620
83,2.132490
84,2.132260
85,2.132220
86,2.132200
87,2.132120
88,2.131820
89,2.131760
90,2.131780
91,2.131590
92,2.131420
93,2.131320
94,2.131280
95,2.131060
96,2.130880
97,2.130880
98,2.130830
99,2.130730
100,2.130600
101,2.130440
102,2.130630
103,2.130350
104,2.130230
105,2.130040
106,2.130020
107,2.129930
108,2.129780
109,2.129660
110,2.129620
111,2.129550
112,2.129450
113,2.129260
114,2.129090
115,2.129260
116,2.129130
117,2.129050
118,2.128820
119,2.128840
120,2.128780
121,2.128780
122,2.128610
123,2.128400
124,2.128360
125,2.128400
126,2.128270
127,2.128100
128,2.128150
129,2.128020
130,2.127900
131,2.127920
132,2.127770
133,2.127710
134,2.127560
135,2.127470
136,2.127470
137,2.127390
138,2.127270
139,2.127310
140,2.127220
141,2.127050
142,2.126990
143,2.126840
144,2.126930
145,2.126800
146,2.126850
147,2.126700
148,2.126610
149,2.126640
150,2.126430
151,2.126190
152,2.126260
153,2.126240
154,2.126240
155,2.126130
156,2.126030
157,2.126070
158,2.125960
159,2.125860
160,2.125820
161,2.125770
162,2.125650
163,2.125580
164,2.125480
165,2.125500
166,2.125310
167,2.125250
168,2.125250
169,2.125230
170,2.125230
171,2.125060
172,2.125000
173,2.124930
174,2.124910
175,2.124870
176,2.124720
177,2.124730
178,2.124680
179,2.124520
180,2.124600
181,2.124540
182,2.124390
183,2.124410
184,2.124220
185,2.124330
186,2.124220
187,2.124100
188,2.123970
189,2.124100
190,2.123910
191,2.123800
192,2.123890
193,2.123650
194,2.123780
195,2.123630
196,2.123650
197,2.123610
198,2.123550
199,2.123570
200,2.123470
201,2.123380
202,2.123340
203,2.123230
204,2.123110
205,2.123170
206,2.123190
207,2.123040
208,2.123090
209,2.122900
210,2.122880
211,2.122770
212,2.122690
213,2.122750
214,2.122750
215,2.122670
216,2.122620
217,2.122580
218,2.122580
219,2.122370
220,2.122330
221,2.122330
222,2.122290
223,2.122370
224,2.122250
225,2.122140
226,2.121910
227,2.122020
228,2.122080
229,2.121890
230,2.121830
231,2.122000
232,2.122020
233,2.121660
234,2.121700
235,2.121570
236,2.121720
237,2.121510
238,2.121450
239,2.121360
240,2.121320
241,2.121340
242,2.121320
243,2.121220
244,2.121300
245,2.121150
246,2.121180
247,2.121130
248,2.121110
249,2.121110
250,2.120920
251,2.120860
252,2.120800
253,2.120730
254,2.120780
255,2.120740
256,2.120780
257,2.120650
258,2.120780
259,2.120530
260,2.120400
261,2.120480
262,2.120460
263,2.120400
264,2.120340
265,2.120290
266,2.120210
267,2.120250
268,2.120230
269,2.120250
270,2.120080
271,2.120110
272,2.120020
273,2.119980
274,2.119920
275,2.119940
276,2.119870
277,2.119810
278,2.119830
279,2.119750
280,2.119640
281,2.119600
282,2.119640
283,2.119540
284,2.119540
285,2.119430
286,2.119350
287,2.119560
288,2.119370
289,2.119410
290,2.119290
291,2.119160
292,2.119160
293,2.119200
294,2.119060
295,2.119120
296,2.119140
297,2.119080
298,2.119040
299,2.118910
300,2.118850
301,2.118800
302,2.118850
303,2.118740
304,2.118870
305,2.118740
306,2.118680
307,2.118660
308,2.118720
309,2.118700
310,2.118530
311,2.118450
312,2.118550
313,2.118430
314,2.118470
315,2.118380
316,2.118280
317,2.118510
318,2.118400
319,2.118240
320,2.118150
321,2.118200
322,2.118110
323,2.118130
324,2.118010
325,2.118010
326,2.118030
327,2.117940
328,2.117840
329,2.117960
330,2.117800
331,2.117880
332,2.117860
333,2.117820
334,2.117770
335,2.117750
336,2.117650
337,2.117590
338,2.117540
339,2.117590
340,2.117590
341,2.117560
342,2.117480
343,2.117440
344,2.117440
345,2.117380
346,2.117360
347,2.117330
348,2.117210
349,2.117290
350,2.117310
351,2.117140
352,2.117150
353,2.117170
354,2.117140
355,2.117100
356,2.117140
357,2.116960
358,2.116980
359,2.116960
360,2.117060
361,2.116980
362,2.116940
363,2.116930
364,2.116940
365,2.116810
366,2.116790
367,2.116700
368,2.116640
369,2.116770
370,2.116680
371,2.116580
372,2.116450
373,2.116560
374,2.116450
375,2.116620
376,2.116430
377,2.116490
378,2.116430
379,2.116410
380,2.116310
381,2.116370
382,2.116410
383,2.116300
384,2.116260
385,2.116180
386,2.116220
387,2.116160
388,2.116140
389,2.116180
390,2.116240
391,2.115950
392,2.115990
393,2.115970
394,2.115950
395,2.115860
396,2.115840
397,2.115910
398,2.115930
399,2.115840
400,2.115880
401,2.115990
402,2.115760
403,2.115800
404,2.115670
405,2.115680
406,2.115800
407,2.115680
408,2.115570
409,2.115590
410,2.115720
411,2.115490
412,2.115510
413,2.115610
414,2.115510
415,2.115440
416,2.115490
417,2.115400
418,2.115250
419,2.115230
420,2.115380
421,2.115360
422,2.115420
423,2.115190
424,2.115250
425,2.115260
426,2.115260
427,2.115150
428,2.115130
429,2.115130
430,2.115190
431,2.115280
432,2.115050
433,2.115110
434,2.114980
435,2.114980
436,2.114940
437,2.115020
438,2.115000
439,2.114900
440,2.114980
441,2.114790
442,2.114960
443,2.115020
444,2.114860
445,2.114710
446,2.114810
447,2.114750
448,2.114810
449,2.114730
450,2.114770
451,2.114600
452,2.114810
453,2.114690
454,2.114650
455,2.114560
456,2.114600
457,2.114540
458,2.114600
459,2.114620
460,2.114620
461,2.114400
462,2.114440
463,2.114480
464,2.114460
465,2.114420
466,2.114440
467,2.114350
468,2.114400
469,2.114400
470,2.114250
471,2.114440
472,2.114290
473,2.114370
474,2.114390
475,2.114350
476,2.114350
477,2.114420
478,2.114290
479,2.114480
480,2.114620
481,2.114630
482,2.114560
483,2.114600
484,2.114580
485,2.114600
486,2.114580
487,2.114620
488,2.114560
489,2.114580
490,2.114540
491,2.114690
492,2.114650
493,2.114690
494,2.114730
495,2.114670
496,2.114770
497,2.114730
498,2.114790
499,2.114670
500,2.114750
501,2.114830
502,2.114860
503,2.114960
504,2.114790
505,2.114790
506,2.115000
507,2.114960
508,2.114960
509,2.115070
510,2.114880
511,2.114880
512,2.115050
513,2.115000
514,2.115090
515,2.115110
516,2.115050
517,2.115130
518,2.115130
519,2.115170
520,2.115260
521,2.115170
522,2.115210
523,2.115170
524,2.115230
525,2.115190
526,2.115280
527,2.115190
528,2.115340
529,2.115260
530,2.115260
531,2.115340
532,2.115360
533,2.115440
534,2.115440
535,2.115300
536,2.115280
537,2.115380
538,2.115400
539,2.115420
540,2.115360
541,2.115320
542,2.115420
543,2.115170
544,2.115300
545,2.115250
546,2.115130
547,2.115260
548,2.115190
549,2.115250
550,2.115210
551,2.115110
552,2.115250
553,2.115130
554,2.115150
555,2.115150
556,2.115130
557,2.115070
558,2.115150
559,2.115130
560,2.115040
561,2.115040
562,2.114960
563,2.114920
564,2.114940
565,2.114980
566,2.114960
567,2.114980
568,2.114840
569,2.114840
570,2.114900
571,2.114840
572,2.114830
573,2.114840
574,2.114860
575,2.114960
576,2.114830
577,2.114730
578,2.114770
579,2.114730
580,2.114750
581,2.114880
582,2.114750
583,2.114810
584,2.114670
585,2.114750
586,2.114790
587,2.114670
588,2.114710
589,2.114770
590,2.114730
591,2.114670
592,2.114710
593,2.114670
594,2.114630
595,2.114620
596,2.114730
597,2.114670
598,2.114620
599,2.114580
600,2.114520
601,2.114580
602,2.114620
603,2.114620
604,2.114620
605,2.114600
606,2.114670
607,2.114710
608,2.114650
609,2.114630
610,2.114620
611,2.114630
612,2.114750
613,2.114620
614,2.114520
615,2.114540
616,2.114500
617,2.114580
618,2.114600
619,2.114600
620,2.114440
621,2.114540
622,2.114540
623,2.114600
624,2.114480
625,2.114390
626,2.114460
627,2.114420
628,2.114270
629,2.114420
630,2.114330
631,2.114310
632,2.114370
633,2.114420
634,2.114310
635,2.114400
636,2.114310
637,2.114230
638,2.114210
639,2.114270
640,2.114120
641,2.114330
642,2.114310
643,2.114080
644,2.114210
645,2.114160
646,2.114040
647,2.114000
648,2.114080
649,2.114160
650,2.114140
651,2.114040
652,2.114140
653,2.114020
654,2.113980
655,2.113930
656,2.113950
657,2.113950
658,2.113810
659,2.113950
660,2.113850
661,2.113850
662,2.113850
663,2.113760
664,2.113810
665,2.113870
666,2.113870
667,2.113890
668,2.113810
669,2.113550
670,2.113910
671,2.113930
672,2.113550
673,2.113700
674,2.113640
675,2.113600
676,2.113600
677,2.113580
678,2.113720
679,2.113560
680,2.113660
681,2.113560
682,2.113430
683,2.113560
684,2.113640
685,2.113470
686,2.113560
687,2.113450
688,2.113450
689,2.113450
690,2.113390
691,2.113490
692,2.113450
693,2.113430
694,2.113410
695,2.113370
696,2.113350
697,2.113390
698,2.113320
699,2.113410
700,2.113340
701,2.113320
702,2.113200
703,2.113350
704,2.113260
705,2.113340
706,2.113320
707,2.113350
708,2.113200
709,2.113390
710,2.113200
711,2.113240
712,2.113280
713,2.113180
714,2.113240
715,2.113240
716,2.113180
717,2.113140
718,2.113180
719,2.113140
720,2.113200
721,2.113130
722,2.113180
723,2.113030
724,2.113050
725,2.112970
726,2.112970
727,2.113140
728,2.113140
729,2.113110
730,2.112970
731,2.113140
732,2.112820
733,2.113070
734,2.112840
735,2.113070
736,2.113070
737,2.113090
738,2.112930
739,2.112970
740,2.112950
741,2.112950
742,2.113030
743,2.113050
744,2.112990
745,2.112900
746,2.112920
747,2.112970
748,2.113070
749,2.112840
750,2.112880
751,2.113050
752,2.112930
753,2.112950
754,2.112930
755,2.112900
756,2.112970
757,2.112800
758,2.112710
759,2.112860
760,2.112840
761,2.112950
762,2.112820
763,2.112880
764,2.112900
765,2.112900
766,2.112920
767,2.112780
768,2.112880
769,2.112880
770,2.112800
771,2.112860
772,2.112710
773,2.112840
774,2.112860
775,2.112760
776,2.112720
777,2.112760
778,2.112920
779,2.112880
780,2.112920
781,2.112840
782,2.112880
783,2.112880
784,2.112900
785,2.112710
786,2.112780
787,2.112860
788,2.112820
789,2.112760
790,2.112780
791,2.112840
792,2.112760
793,2.112760
794,2.112780
795,2.112880
796,2.112840
797,2.112990
798,2.112930
799,2.112900
800,2.112990
801,2.112970
802,2.113070
803,2.113010
804,2.112920
805,2.113030
806,2.113030
807,2.113030
808,2.113050
809,2.113070
810,2.113010
811,2.113110
812,2.113070
813,2.113130
814,2.112970
815,2.113030
816,2.113110
817,2.113030
818,2.113050
819,2.113180
820,2.113050
821,2.113160
822,2.112950
823,2.113140
824,2.113030
825,2.113030
826,2.113070
827,2.113130
828,2.113070
829,2.113050
830,2.112970
831,2.113200
832,2.113130
833,2.113030
834,2.112920
835,2.112950
836,2.112920
837,2.113110
838,2.112970
839,2.112990
840,2.112970
841,2.113010
842,2.112990
843,2.112930
844,2.113090
845,2.113010
846,2.112950
847,2.113070
848,2.112930
849,2.113070
850,2.112970
851,2.113130
852,2.112900
853,2.112880
854,2.112860
855,2.112930
856,2.113010
857,2.112900
858,2.112990
859,2.113010
860,2.112970
861,2.113010
862,2.113010
863,2.113030
864,2.112920
865,2.113010
866,2.113030
867,2.112900
868,2.112840
869,2.112970
870,2.112950
871,2.113030
872,2.112860
873,2.112860
874,2.112920
875,2.112920
876,2.112950
877,2.112800
878,2.112820
879,2.112880
880,2.112990
881,2.112800
882,2.112860
883,2.112740
884,2.112840
885,2.112780
886,2.112840
887,2.112860
888,2.112860
889,2.112740
890,2.112820
891,2.112720
892,2.112860
893,2.112820
894,2.112800
895,2.112820
896,2.112720
897,2.112820
898,2.112670
899,2.112950
900,2.112780
901,2.112760
902,2.112720
903,2.112690
904,2.112760
905,2.112710
906,2.112760
907,2.112820
908,2.112720
909,2.112820
910,2.112670
911,2.112760
912,2.112800
913,2.112710
914,2.112780
915,2.112650
916,2.112670
917,2.112590
918,2.112630
919,2.112630
920,2.112690
921,2.112780
922,2.112630
923,2.112690
924,2.112610
925,2.112650
926,2.112710
927,2.112650
928,2.112720
929,2.112740
930,2.112670
931,2.112570
932,2.112690
933,2.112670
934,2.112670
935,2.112590
936,2.112610
937,2.112550
938,2.112460
939,2.112550
940,2.112590
941,2.112460
942,2.112550
943,2.112550
944,2.112550
945,2.112420
946,2.112500
947,2.112460
948,2.112480
949,2.112440
950,2.112510
951,2.112440
952,2.112500
953,2.112290
954,2.112360
955,2.112340
956,2.112480
957,2.112320
958,2.112420
959,2.112340
960,2.112380
961,2.112420
962,2.112400
963,2.112440
964,2.112300
965,2.112340
966,2.112250
967,2.112270
968,2.112320
969,2.112190
970,2.112130
971,2.112270
972,2.112230
973,2.112300
974,2.112300
975,2.112190
976,2.112320
977,2.112190
978,2.112210
979,2.112090
980,2.112170
981,2.112250
982,2.112150
983,2.112040
984,2.112040
985,2.112150
986,2.112110
987,2.112060
988,2.112000
989,2.112040
990,2.112110
991,2.112040
992,2.112110
993,2.112110
994,2.112020
995,2.111940
996,2.112020
997,2.112080
998,2.112080
999,2.112040
1000,2.112130
1001,2.111900
1002,2.112040
1003,2.111870
1004,2.112060
1005,2.111940
1006,2.112080
1007,2.111850
1008,2.111980
1009,2.111980
1010,2.111960
1011,2.111880
1012,2.111940
1013,2.111940
1014,2.111850
1015,2.111900
1016,2.111870
1017,2.111960
1018,2.111920
1019,2.111880
1020,2.111810
1021,2.111690
1022,2.111790
1023,2.111770
1024,2.111870
1025,2.111790
1026,2.111670
1027,2.111660
1028,2.111750
1029,2.111830
1030,2.111730
1031,2.111640
1032,2.111660
1033,2.111640
1034,2.111660
1035,2.111520
1036,2.111660
1037,2.111660
1038,2.111620
1039,2.111640
1040,2.111520
1041,2.111540
1042,2.111540
1043,2.111580
1044,2.111560
1045,2.111500
1046,2.111390
1047,2.111390
1048,2.111460
1049,2.111520
1050,2.111450
1051,2.111450
1052,2.111560
1053,2.111460
1054,2.111390
1055,2.111450
1056,2.111410
1057,2.111540
1058,2.111520
1059,2.111410
1060,2.111350
1061,2.111390
1062,2.111370
1063,2.111270
1064,2.111250
1065,2.111270
1066,2.111310
1067,2.111250
1068,2.111270
1069,2.111180
1070,2.111270
1071,2.111270
1072,2.111140
1073,2.111290
1074,2.111160
1075,2.111240
1076,2.111350
1077,2.111120
1078,2.111100
1079,2.111200
1080,2.111220
1081,2.111200
1082,2.111180
1083,2.111120
1084,2.111100
1085,2.111080
1086,2.111120
1087,2.111040
1088,2.111180
1089,2.111140
1090,2.111160
1091,2.111160
1092,2.111080
1093,2.111080
1094,2.111080
1095,2.111100
1096,2.110990
1097,2.111040
1098,2.111010
1099,2.111060
1100,2.111010
1101,2.111010
1102,2.110950
1103,2.111040
1104,2.110950
1105,2.110970
1106,2.110890
1107,2.110870
1108,2.110950
1109,2.111010
1110,2.110970
1111,2.110850
1112,2.110910
1113,2.110950
1114,2.110970
1115,2.110870
1116,2.110820
1117,2.110950
1118,2.110760
1119,2.110870
1120,2.110700
1121,2.111030
1122,2.110930
1123,2.110870
1124,2.110760
1125,2.110780
1126,2.110870
1127,2.110800
1128,2.110870
1129,2.110820
1130,2.110890
1131,2.110910
1132,2.110760
1133,2.110890
1134,2.110680
1135,2.110830
1136,2.110870
1137,2.110870
1138,2.110870
1139,2.110800
1140,2.110830
1141,2.110700
1142,2.110870
1143,2.110950
1144,2.110740
1145,2.110800
1146,2.110950
1147,2.110780
1148,2.110820
1149,2.110740
1150,2.110890
1151,2.110800
1152,2.110700
1153,2.110870
1154,2.110830
1155,2.110700
1156,2.110760
1157,2.110760
1158,2.110720
1159,2.110780
1160,2.110640
1161,2.110620
1162,2.110820
1163,2.110800
1164,2.110740
1165,2.110680
1166,2.110610
1167,2.110760
1168,2.110700
1169,2.110830
1170,2.110800
1171,2.110780
1172,2.110830
1173,2.110660
1174,2.110800
1175,2.110570
1176,2.110660
1177,2.110720
1178,2.110680
1179,2.110740
1180,2.110640
1181,2.110740
1182,2.110780
1183,2.110660
1184,2.110660
1185,2.110660
1186,2.110620
1187,2.110590
1188,2.110740
1189,2.110570
1190,2.110660
1191,2.110550
1192,2.110700
1193,2.110610
1194,2.110610
1195,2.110590
1196,2.110550
1197,2.110640
1198,2.110550
1199,2.110590
1200,2.110620
1201,2.110590
1202,2.110680
1203,2.110610
1204,2.110510
1205,2.110550
1206,2.110510
1207,2.110610
1208,2.110470
1209,2.110430
1210,2.110590
1211,2.110510
1212,2.110610
1213,2.110430
1214,2.110470
1215,2.110490
1216,2.110550
1217,2.110590
1218,2.110470
1219,2.110640
1220,2.110570
1221,2.110640
1222,2.110510
1223,2.110550
1224,2.110530
1225,2.110590
1226,2.110490
1227,2.110570
1228,2.110490
1229,2.110620
1230,2.110530
1231,2.110590
1232,2.110550
1233,2.110510
1234,2.110610
1235,2.110570
1236,2.110550
1237,2.110510
1238,2.110510
1239,2.110510
1240,2.110590
1241,2.110640
1242,2.110530
1243,2.110570
1244,2.110640
1245,2.110530
1246,2.110490
1247,2.110490
1248,2.110610
1249,2.110620
1250,2.110430
1251,2.110640
1252,2.110510
1253,2.110360
1254,2.110570
1255,2.110530
1256,2.110530
1257,2.110470
1258,2.110430
1259,2.110510
1260,2.110530
1261,2.110470
1262,2.110530
1263,2.110340
1264,2.110590
1265,2.110510
1266,2.110590
1267,2.110240
1268,2.110380
1269,2.110490
1270,2.110430
1271,2.110380
1272,2.110430
1273,2.110410
1274,2.110360
1275,2.110380
1276,2.110400
1277,2.110360
1278,2.110360
1279,2.110280
1280,2.110340
1281,2.110380
1282,2.110380
1283,2.110200
1284,2.110280
1285,2.110340
1286,2.110300
1287,2.110340
1288,2.110380
1289,2.110320
1290,2.110320
1291,2.110360
1292,2.110300
1293,2.110200
1294,2.110300
1295,2.110190
1296,2.110070
1297,2.110220
1298,2.110240
1299,2.110200
1300,2.110300
1301,2.110240
1302,2.110090
1303,2.110190
1304,2.110170
1305,2.110200
1306,2.110110
1307,2.110130
1308,2.110200
1309,2.110340
1310,2.110340
1311,2.110190
1312,2.110110
1313,2.110280
1314,2.110300
1315,2.110200
1316,2.110240
1317,2.110150
1318,2.110130
1319,2.110190
1320,2.110200
1321,2.110130
1322,2.110240
1323,2.110170
1324,2.110200
1325,2.110260
1326,2.110130
1327,2.110110
1328,2.110090
1329,2.110030
1330,2.110110
1331,2.110150
1332,2.109960
1333,2.110070
1334,2.110070
1335,2.110110
1336,2.110010
1337,2.110010
1338,2.110090
1339,2.109940
1340,2.110110
1341,2.110090
1342,2.109960
1343,2.109960
1344,2.110030
1345,2.109980
1346,2.109900
1347,2.109920
1348,2.109770
1349,2.109860
1350,2.109880
1351,2.109840
1352,2.109940
1353,2.109880
1354,2.109780
1355,2.109960
1356,2.109770
1357,2.109880
1358,2.109800
1359,2.109840
1360,2.109900
1361,2.109710
1362,2.109820
1363,2.109820
1364,2.109800
1365,2.109730
1366,2.109730
1367,2.109710
1368,2.109860
1369,2.109730
1370,2.109750
1371,2.109730
1372,2.109670
1373,2.109800
1374,2.109630
1375,2.109710
1376,2.109610
1377,2.109650
1378,2.109500
1379,2.109550
1380,2.109650
1381,2.109570
1382,2.109650
1383,2.109590
1384,2.109570
1385,2.109460
1386,2.109550
1387,2.109550
1388,2.109570
1389,2.109540
1390,2.109420
1391,2.109550
1392,2.109540
1393,2.109570
1394,2.109500
1395,2.109400
1396,2.109480
1397,2.109460
1398,2.109520
1399,2.109520
1400,2.109360
1401,2.109480
1402,2.109440
1403,2.109460
1404,2.109360
1405,2.109340
1406,2.109460
1407,2.109340
1408,2.109310
1409,2.109270
1410,2.109290
1411,2.109440
1412,2.109330
1413,2.109380
1414,2.109340
1415,2.109380
1416,2.109310
1417,2.109250
1418,2.109230
1419,2.109210
1420,2.109190
1421,2.109250
1422,2.109400
1423,2.109150
1424,2.109420
1425,2.109250
1426,2.109270
1427,2.109310
1428,2.109340
1429,2.109270
1430,2.109230
1431,2.109230
1432,2.109230
1433,2.109130
1434,2.109230
1435,2.109330
1436,2.109330
1437,2.109290
1438,2.109170
1439,2.109120
1440,2.109080
1441,2.109270
1442,2.109100
1443,2.109120
1444,2.109190
1445,2.109130
1446,2.109020
1447,2.109130
1448,2.109100
1449,2.109060
1450,2.109150
1451,2.108980
1452,2.108960
1453,2.109150
1454,2.109060
1455,2.109020
1456,2.109100
1457,2.108850
1458,2.109080
1459,2.108940
1460,2.109060
1461,2.108940
1462,2.108870
1463,2.108910
1464,2.108960
1465,2.108920
1466,2.109000
1467,2.109040
1468,2.108980
1469,2.109060
1470,2.108910
1471,2.108960
1472,2.108960
1473,2.108830
1474,2.108960
1475,2.108940
1476,2.108870
1477,2.108850
1478,2.108920
1479,2.108870
1480,2.108790
1481,2.108850
1482,2.108790
1483,2.108870
1484,2.108730
1485,2.108730
1486,2.108730
1487,2.108850
1488,2.108770
1489,2.108920
1490,2.108870
1491,2.108790
1492,2.108730
1493,2.108790
1494,2.108830
1495,2.108710
1496,2.108940
1497,2.108770
1498,2.108710
1499,2.108770
1500,2.108750
1501,2.108660
1502,2.108810
1503,2.108700
1504,2.108830
1505,2.108750
1506,2.108580
1507,2.108660
1508,2.108640
1509,2.108730
1510,2.108700
1511,2.108730
1512,2.108700
1513,2.108620
1514,2.108600
1515,2.108640
1516,2.108640
1517,2.108640
1518,2.108580
1519,2.108710
1520,2.108680
1521,2.108580
1522,2.108580
1523,2.108660
1524,2.108640
1525,2.108520
1526,2.108660
1527,2.108560
1528,2.108490
1529,2.108680
1530,2.108540
1531,2.108620
1532,2.108390
1533,2.108490
1534,2.108430
1535,2.108490
1536,2.108660
1537,2.108430
1538,2.108560
1539,2.108470
1540,2.108470
1541,2.108540
1542,2.108490
1543,2.108560
1544,2.108330
1545,2.108520
1546,2.108430
1547,2.108520
1548,2.108410
1549,2.108410
1550,2.108520
1551,2.108330
1552,2.108450
1553,2.108330
1554,2.108350
1555,2.108490
1556,2.108580
1557,2.108500
1558,2.108490
1559,2.108410
1560,2.108490
1561,2.108330
1562,2.108430
1563,2.108390
1564,2.108350
1565,2.108350
1566,2.108280
1567,2.108310
1568,2.108350
1569,2.108430
1570,2.108290
1571,2.108220
1572,2.108350
1573,2.108280
1574,2.108350
1575,2.108260
1576,2.108370
1577,2.108260
1578,2.108390
1579,2.108370
1580,2.108290
1581,2.108220
1582,2.108390
1583,2.108260
1584,2.108240
1585,2.108220
1586,2.108260
1587,2.108260
1588,2.108220
1589,2.108200
1590,2.108180
1591,2.108200
1592,2.108240
1593,2.108260
1594,2.108140
1595,2.108120
1596,2.108200
1597,2.108240
1598,2.108260
1599,2.108160
1600,2.108140
1601,2.108200
1602,2.108200
1603,2.108120
1604,2.108080
1605,2.108160
1606,2.108080
1607,2.108160
1608,2.108140
1609,2.108100
1610,2.108120
1611,2.108010
1612,2.108160
1613,2.108080
1614,2.108180
1615,2.108010
1616,2.107990
1617,2.108220
1618,2.108010
1619,2.108070
1620,2.108050
1621,2.108030
1622,2.108180
1623,2.108080
1624,2.107910
1625,2.107910
1626,2.108080
1627,2.107930
1628,2.108010
1629,2.108030
1630,2.108100
1631,2.108140
1632,2.108030
1633,2.107990
1634,2.108080
1635,2.108050
1636,2.107990
1637,2.108010
1638,2.107890
1639,2.108180
1640,2.107970
1641,2.108030
1642,2.107970
1643,2.108010
1644,2.107930
1645,2.108010
1646,2.108030
1647,2.107950
1648,2.107870
1649,2.107870
1650,2.108070
1651,2.108080
1652,2.107990
1653,2.107970
1654,2.107950
1655,2.107780
1656,2.107950
1657,2.107970
1658,2.108030
1659,2.107970
1660,2.107910
1661,2.107990
1662,2.107970
1663,2.107870
1664,2.107950
1665,2.107930
1666,2.107910
1667,2.107950
1668,2.108030
1669,2.107910
1670,2.107910
1671,2.107970
1672,2.107870
1673,2.107990
1674,2.107950
1675,2.107910
1676,2.107840
1677,2.107930
1678,2.107860
1679,2.107860
1680,2.107780
1681,2.107890
1682,2.107860
1683,2.107840
1684,2.107800
1685,2.107990
1686,2.107890
1687,2.107890
1688,2.107860
1689,2.107910
1690,2.107800
1691,2.107820
1692,2.107870
1693,2.107860
1694,2.107840
1695,2.107910
1696,2.107800
1697,2.107890
1698,2.107800
1699,2.107760
1700,2.107870
1701,2.107740
1702,2.107890
1703,2.107910
1704,2.107680
1705,2.107760
1706,2.107870
1707,2.107780
1708,2.107890
1709,2.107840
1710,2.107800
1711,2.107910
1712,2.107760
1713,2.107800
1714,2.107800
1715,2.107780
1716,2.107800
1717,2.107930
1718,2.107820
1719,2.107860
1720,2.107720
1721,2.107780
1722,2.107800
1723,2.107820
1724,2.107840
1725,2.107780
1726,2.107780
1727,2.107890
1728,2.107800
1729,2.107780
1730,2.107760
1731,2.107860
1732,2.107720
1733,2.107740
1734,2.107800
1735,2.107650
1736,2.107840
1737,2.107910
1738,2.107780
1739,2.107870
1740,2.107740
1741,2.107840
1742,2.107840
1743,2.107740
1744,2.107680
1745,2.107740
1746,2.107780
1747,2.107820
1748,2.107870
1749,2.107870
1750,2.107860
1751,2.107680
1752,2.107800
1753,2.107930
1754,2.107820
1755,2.107740
1756,2.107700
1757,2.107840
1758,2.107740
1759,2.107840
1760,2.107860
1761,2.107930
1762,2.107760
1763,2.107860
1764,2.107930
1765,2.107890
1766,2.107840
1767,2.107780
1768,2.107930
1769,2.107820
1770,2.107870
1771,2.107870
1772,2.107970
1773,2.107990
1774,2.108080
1775,2.107910
1776,2.107990
1777,2.108010
1778,2.107990
1779,2.107970
1780,2.108030
1781,2.108180
1782,2.108120
1783,2.108280
1784,2.108200
1785,2.108350
1786,2.108470
1787,2.108200
1788,2.108410
1789,2.108410
1790,2.108430
1791,2.108470
1792,2.108490
1793,2.108620
1794,2.108680
1795,2.108620
1796,2.108810
1797,2.108830
1798,2.108770
1799,2.108790
1800,2.108910
1801,2.108960
1802,2.109060
1803,2.109000
1804,2.109150
1805,2.109080
1806,2.109100
1807,2.109380
1808,2.109170
1809,2.109150
1810,2.109400
1811,2.109250
1812,2.109340
1813,2.109440
1814,2.109500
1815,2.109610
1816,2.109630
1817,2.109520
1818,2.109550
1819,2.109690
1820,2.109610
1821,2.109770
1822,2.109710
1823,2.109800
1824,2.109860
1825,2.109770
1826,2.109840
1827,2.109990
1828,2.110010
1829,2.110130
1830,2.109920
1831,2.110130
1832,2.110030
1833,2.110200
1834,2.110150
1835,2.110300
1836,2.110240
1837,2.110240
1838,2.110240
1839,2.110320
1840,2.110430
1841,2.110490
1842,2.110490
1843,2.110380
1844,2.110590
1845,2.110470
1846,2.110530
1847,2.110570
1848,2.110780
1849,2.110680
1850,2.110720
1851,2.110550
1852,2.110740
1853,2.110830
1854,2.110780
1855,2.110800
1856,2.110870
1857,2.110850
1858,2.110910
1859,2.110970
1860,2.110970
1861,2.110910
1862,2.111080
1863,2.111060
1864,2.111160
1865,2.111100
1866,2.111140
1867,2.111180
1868,2.111180
1869,2.111160
1870,2.110990
1871,2.111180
1872,2.111100
1873,2.111160
1874,2.111140
1875,2.111040
1876,2.111140
1877,2.111140
1878,2.111200
1879,2.111160
1880,2.111030
1881,2.111080
1882,2.110990
1883,2.111040
1884,2.111040
1885,2.111010
1886,2.111060
1887,2.111030
1888,2.110970
1889,2.110870
1890,2.110910
1891,2.110890
1892,2.110990
1893,2.110870
1894,2.110890
1895,2.111040
1896,2.111010
1897,2.110930
1898,2.110970
1899,2.110820
1900,2.110820
1901,2.110820
1902,2.110760
1903,2.110890
1904,2.110950
1905,2.110830
1906,2.110820
1907,2.110700
1908,2.110740
1909,2.110780
1910,2.110740
1911,2.110720
1912,2.110850
1913,2.110820
1914,2.110720
1915,2.110700
1916,2.110720
1917,2.110700
1918,2.110820
1919,2.110760
1920,2.110620
1921,2.110660
1922,2.110660
1923,2.110700
1924,2.110620
1925,2.110660
1926,2.110640
1927,2.110660
1928,2.110660
1929,2.110620
1930,2.110510
1931,2.110530
1932,2.110570
1933,2.110510
1934,2.110620
1935,2.110570
1936,2.110470
1937,2.110380
1938,2.110530
1939,2.110450
1940,2.110470
1941,2.110380
1942,2.110530
1943,2.110240
1944,2.110340
1945,2.110360
1946,2.110450
1947,2.110410
1948,2.110340
1949,2.110360
1950,2.110300
1951,2.110340
1952,2.110380
1953,2.110340
1954,2.110380
1955,2.110240
1956,2.110280
1957,2.110240
1958,2.110300
1959,2.110190
1960,2.110280
1961,2.110300
1962,2.110010
1963,2.110190
1964,2.110190
1965,2.110170
1966,2.110130
1967,2.110240
1968,2.110110
1969,2.110070
1970,2.109990
1971,2.110170
1972,2.110030
1973,2.110050
1974,2.109990
1975,2.110010
1976,2.109860
1977,2.110070
1978,2.109900
1979,2.110010
1980,2.109880
1981,2.109960
1982,2.109900
1983,2.110010
1984,2.109990
1985,2.109880
1986,2.109860
1987,2.109800
1988,2.109980
1989,2.110010
1990,2.109800
1991,2.109770
1992,2.109770
1993,2.109900
1994,2.109730
1995,2.109840
1996,2.109770
1997,2.109800
1998,2.109840
1999,2.109780
2000,2.109750
2001,2.109750
2002,2.109730
2003,2.109690
2004,2.109670
2005,2.109690
2006,2.109630
2007,2.109750
2008,2.109610
2009,2.109650
2010,2.109670
2011,2.109690
2012,2.109540
2013,2.109690
2014,2.109440
2015,2.109550
2016,2.109670
2017,2.109650
2018,2.109570
2019,2.109670
2020,2.109550
2021,2.109520
2022,2.109420
2023,2.109420
2024,2.109540
2025,2.109480
2026,2.109520
2027,2.109590
2028,2.109500
2029,2.109570
2030,2.109520
2031,2.109480
2032,2.109460
2033,2.109550
2034,2.109440
2035,2.109420
2036,2.109500
2037,2.109380
2038,2.109570
2039,2.109420
2040,2.109570
2041,2.109420
2042,2.109520
2043,2.109380
2044,2.109400
2045,2.109420
2046,2.109400
2047,2.109460
2048,2.109550
2049,2.109340
2050,2.109330
2051,2.109310
2052,2.109330
2053,2.109480
2054,2.109400
2055,2.109440
2056,2.109400
2057,2.109360
2058,2.109360
2059,2.109250
2060,2.109230
2061,2.109270
2062,2.109420
2063,2.109290
2064,2.109550
2065,2.109330
2066,2.109310
2067,2.109310
2068,2.109210
2069,2.109310
2070,2.109130
2071,2.109210
2072,2.109250
2073,2.109230
2074,2.109210
2075,2.109130
2076,2.109150
2077,2.109310
2078,2.109170
2079,2.109290
2080,2.109130
2081,2.109330
2082,2.109190
2083,2.109120
2084,2.109190
2085,2.109120
2086,2.109130
2087,2.109210
2088,2.109190
2089,2.109040
2090,2.109190
2091,2.109120
2092,2.109210
2093,2.109120
2094,2.108980
2095,2.109040
2096,2.109120
2097,2.109120
2098,2.109000
2099,2.109190
2100,2.109210
2101,2.109130
2102,2.109100
2103,2.109150
2104,2.109020
2105,2.109000
2106,2.109020
2107,2.109060
2108,2.109040
2109,2.109000
2110,2.108960
2111,2.108870
2112,2.109080
2113,2.109130
2114,2.109020
2115,2.109040
2116,2.109100
2117,2.108980
2118,2.109000
2119,2.109060
2120,2.109170
2121,2.109020
2122,2.108960
2123,2.108980
2124,2.108920
2125,2.109040
2126,2.108890
2127,2.109000
2128,2.109000
2129,2.109080
2130,2.108940
2131,2.108910
2132,2.109040
2133,2.108960
2134,2.109060
2135,2.109020
2136,2.108830
2137,2.108910
2138,2.108920
2139,2.108870
2140,2.108920
2141,2.108960
2142,2.108980
2143,2.108960
2144,2.109040
2145,2.108890
2146,2.108870
2147,2.108850
2148,2.109040
2149,2.108940
2150,2.108920
2151,2.108960
2152,2.108920
2153,2.109060
2154,2.108770
2155,2.108850
2156,2.108850
2157,2.108940
2158,2.108770
2159,2.108910
2160,2.108810
2161,2.108920
2162,2.108920
2163,2.108870
2164,2.108890
2165,2.108830
2166,2.108940
2167,2.108750
2168,2.108940
2169,2.108870
2170,2.108810
2171,2.108750
2172,2.108870
2173,2.108810
2174,2.108910
2175,2.108810
2176,2.108750
2177,2.108890
2178,2.108810
2179,2.108730
2180,2.108810
2181,2.108830
2182,2.108910
2183,2.108850
2184,2.108920
2185,2.108890
2186,2.108870
2187,2.108960
2188,2.108830
2189,2.108810
2190,2.108810
2191,2.108790
2192,2.108700
2193,2.108700
2194,2.108790
2195,2.108730
2196,2.108790
2197,2.108730
2198,2.108770
2199,2.108770
2200,2.108750
2201,2.108730
2202,2.108710
2203,2.108750
2204,2.108680
2205,2.108830
2206,2.108730
2207,2.108710
2208,2.108770
2209,2.108700
2210,2.108700
2211,2.108790
2212,2.108700
2213,2.108700
2214,2.108710
2215,2.108620
2216,2.108710
2217,2.108790
2218,2.108710
2219,2.108730
2220,2.108710
2221,2.108710
2222,2.108680
2223,2.108660
2224,2.108660
2225,2.108660
2226,2.108620
2227,2.108580
2228,2.108680
2229,2.108600
2230,2.108660
2231,2.108560
2232,2.108520
2233,2.108600
2234,2.108560
2235,2.108620
2236,2.108490
2237,2.108580
2238,2.108580
2239,2.108410
2240,2.108240
2241,2.108430
2242,2.108450
2243,2.108390
2244,2.108410
2245,2.108450
2246,2.108310
2247,2.108490
2248,2.108290
2249,2.108310
2250,2.108350
2251,2.108450
2252,2.108310
2253,2.108220
2254,2.108370
2255,2.108290
2256,2.108160
2257,2.108330
2258,2.108280
2259,2.108260
2260,2.108220
2261,2.108350
2262,2.108220
2263,2.108290
2264,2.108430
2265,2.108220
2266,2.108350
2267,2.108080
2268,2.108200
2269,2.108080
2270,2.108140
2271,2.108030
2272,2.108160
2273,2.108120
2274,2.108200
2275,2.108140
2276,2.108290
2277,2.108180
2278,2.108120
2279,2.108160
2280,2.108140
2281,2.108070
2282,2.108180
2283,2.108100
2284,2.108100
2285,2.108080
2286,2.108080
2287,2.108070
2288,2.108120
2289,2.108120
2290,2.108080
2291,2.108140
2292,2.108080
2293,2.108080
2294,2.108100
2295,2.108070
2296,2.108100
2297,2.108240
2298,2.108080
2299,2.108010
2300,2.108080
2301,2.108080
2302,2.108070
2303,2.108030
2304,2.108030
2305,2.108140
2306,2.107970
2307,2.107930
2308,2.108010
2309,2.107970
2310,2.107950
2311,2.108120
2312,2.107950
2313,2.108070
2314,2.108070
2315,2.108120
2316,2.108070
2317,2.108030
2318,2.107950
2319,2.108050
2320,2.108080
2321,2.107970
2322,2.108160
2323,2.107950
2324,2.107990
2325,2.108030
2326,2.107990
2327,2.107930
2328,2.107890
2329,2.107990
2330,2.107970
2331,2.108010
2332,2.107950
2333,2.107950
2334,2.107840
2335,2.107970
2336,2.107860
2337,2.107910
2338,2.107950
2339,2.107990
2340,2.107800
2341,2.107870
2342,2.108010
2343,2.107950
2344,2.107820
2345,2.107990
2346,2.107740
2347,2.107800
2348,2.107890
2349,2.107740
2350,2.107860
2351,2.107870
2352,2.107800
2353,2.107840
2354,2.107760
2355,2.107760
2356,2.107870
2357,2.107740
2358,2.107740
2359,2.107700
2360,2.107660
2361,2.107700
2362,2.107780
2363,2.107860
2364,2.107660
2365,2.107740
2366,2.107800
2367,2.107700
2368,2.107780
2369,2.107720
2370,2.107760
2371,2.107720
2372,2.107680
2373,2.107630
2374,2.107590
2375,2.107630
2376,2.107630
2377,2.107820
2378,2.107720
2379,2.107680
2380,2.107760
2381,2.107510
2382,2.107510
2383,2.107340
2384,2.107450
2385,2.107360
2386,2.107380
2387,2.107320
2388,2.107360
2389,2.107300
2390,2.107380
2391,2.107260
2392,2.107230
2393,2.107300
2394,2.107210
2395,2.107230
2396,2.107340
2397,2.107280
2398,2.107300
2399,2.107260
2400,2.107420
2401,2.107340
2402,2.107320
2403,2.107090
2404,2.107380
2405,2.107380
2406,2.107380
2407,2.107340
2408,2.107400
2409,2.107510
2410,2.107300
2411,2.107490
2412,2.107400
2413,2.107300
2414,2.107340
2415,2.107230
2416,2.107300
2417,2.107470
2418,2.107380
2419,2.107340
2420,2.107320
2421,2.107340
2422,2.107420
2423,2.107380
2424,2.107320
2425,2.107300
2426,2.107190
2427,2.107320
2428,2.107320
2429,2.107240
2430,2.107280
2431,2.107240
2432,2.107320
2433,2.107260
2434,2.107320
2435,2.107360
2436,2.107150
2437,2.107340
2438,2.107400
2439,2.107300
2440,2.107190
2441,2.107340
2442,2.107190
2443,2.107320
2444,2.107380
2445,2.107300
2446,2.107360
2447,2.107380
2448,2.107280
2449,2.107300
2450,2.107450
2451,2.107340
2452,2.107320
2453,2.107300
2454,2.107230
2455,2.107280
2456,2.107420
2457,2.107340
2458,2.107420
2459,2.107490
2460,2.107490
2461,2.107530
2462,2.107590
2463,2.107610
2464,2.107650
2465,2.107570
2466,2.107680
2467,2.107660
2468,2.107650
2469,2.107760
2470,2.107660
2471,2.107870
2472,2.107870
2473,2.107820
2474,2.107890
2475,2.107930
2476,2.107890
2477,2.108080
2478,2.108010
2479,2.108100
2480,2.108140
2481,2.107990
2482,2.108180
2483,2.108160
2484,2.108290
2485,2.108200
2486,2.108160
2487,2.108280
2488,2.108200
2489,2.108220
2490,2.108240
2491,2.108240
2492,2.108200
2493,2.108310
2494,2.108280
2495,2.108080
2496,2.108280
2497,2.108220
2498,2.108160
2499,2.108100
2500,2.108180
2501,2.108200
2502,2.108220
2503,2.108140
2504,2.108080
2505,2.108100
2506,2.108100
2507,2.108120
2508,2.108120
2509,2.108070
2510,2.107860
2511,2.108080
2512,2.107840
2513,2.107910
2514,2.107950
2515,2.107870
2516,2.107930
2517,2.107950
2518,2.107800
2519,2.107950
2520,2.107780
2521,2.107840
2522,2.107800
2523,2.107780
2524,2.107820
2525,2.107800
2526,2.107860
2527,2.107740
2528,2.107820
2529,2.107590
2530,2.107630
2531,2.107630
2532,2.107630
2533,2.107550
2534,2.107570
2535,2.107550
2536,2.107740
2537,2.107630
2538,2.107570
2539,2.107440
2540,2.107550
2541,2.107550
2542,2.107450
2543,2.107510
2544,2.107420
2545,2.107450
2546,2.107400
2547,2.107420
2548,2.107440
2549,2.107300
2550,2.107400
2551,2.107360
2552,2.107340
2553,2.107380
2554,2.107260
2555,2.107280
2556,2.107210
2557,2.107260
2558,2.107280
2559,2.107260
2560,2.107070
2561,2.107340
2562,2.107400
2563,2.107190
2564,2.107230
2565,2.107230
2566,2.107070
2567,2.107240
2568,2.107150
2569,2.107170
2570,2.107190
2571,2.107070
2572,2.106980
2573,2.107050
2574,2.107090
2575,2.107020
2576,2.107000
2577,2.107050
2578,2.107020
2579,2.106980
2580,2.107020
2581,2.106880
2582,2.106880
2583,2.107030
2584,2.106900
2585,2.106920
2586,2.106900
2587,2.106840
2588,2.106840
2589,2.106770
2590,2.106810
2591,2.106900
2592,2.106810
2593,2.106820
2594,2.106610
2595,2.106750
2596,2.106710
2597,2.106730
2598,2.106670
2599,2.106600
2600,2.106630
2601,2.106710
2602,2.106540
2603,2.106600
2604,2.106580
2605,2.106730
2606,2.106520
2607,2.106520
2608,2.106600
2609,2.106460
2610,2.106520
2611,2.106630
2612,2.106580
2613,2.106580
2614,2.106420
2615,2.106440
2616,2.106480
2617,2.106460
2618,2.106370
2619,2.106270
2620,2.106370
2621,2.106350
2622,2.106460
2623,2.106440
2624,2.106400
2625,2.106310
2626,2.106330
2627,2.106400
2628,2.106350
2629,2.106230
2630,2.106160
2631,2.106270
2632,2.106210
2633,2.106330
2634,2.106060
2635,2.106140
2636,2.106230
2637,2.106210
2638,2.106140
2639,2.106100
2640,2.106120
2641,2.106120
2642,2.106040
2643,2.106040
2644,2.106100
2645,2.106120
2646,2.106040
2647,2.106120
2648,2.105910
2649,2.106040
2650,2.106080
2651,2.105870
2652,2.105970
2653,2.105970
2654,2.105910
2655,2.105970
2656,2.105980
2657,2.105790
2658,2.105980
2659,2.105890
2660,2.105910
2661,2.105850
2662,2.105760
2663,2.105850
2664,2.105810
2665,2.105870
2666,2.105790
2667,2.105810
2668,2.105760
2669,2.105810
2670,2.105760
2671,2.105700
2672,2.105760
2673,2.105740
2674,2.105680
2675,2.105660
2676,2.105770
2677,2.105680
2678,2.105680
2679,2.105680
2680,2.105680
2681,2.105530
2682,2.105660
2683,2.105600
2684,2.105640
2685,2.105660
2686,2.105490
2687,2.105600
2688,2.105510
2689,2.105620
2690,2.105470
2691,2.105550
2692,2.105530
2693,2.105560
2694,2.105370
2695,2.105490
2696,2.105490
2697,2.105490
2698,2.105530
2699,2.105370
2700,2.105340
2701,2.105450
2702,2.105410
2703,2.105490
2704,2.105550
2705,2.105430
2706,2.105450
2707,2.105370
2708,2.105410
2709,2.105390
2710,2.105350
2711,2.105390
2712,2.105300
2713,2.105390
2714,2.105300
2715,2.105180
2716,2.105450
2717,2.105240
2718,2.105200
2719,2.105280
2720,2.105220
2721,2.105140
2722,2.105320
2723,2.105140
2724,2.105350
2725,2.105110
2726,2.105130
2727,2.105200
2728,2.105010
2729,2.105220
2730,2.105050
2731,2.105010
2732,2.105070
2733,2.105090
2734,2.105030
2735,2.105010
2736,2.105030
2737,2.105070
2738,2.105140
2739,2.105050
2740,2.104880
2741,2.105010
2742,2.104970
2743,2.104930
2744,2.104930
2745,2.104860
2746,2.104900
2747,2.104840
2748,2.104860
2749,2.105110
2750,2.104950
2751,2.104820
2752,2.104800
2753,2.104920
2754,2.104760
2755,2.104860
2756,2.104760
2757,2.104800
2758,2.104800
2759,2.104820
2760,2.104760
2761,2.104740
2762,2.104800
2763,2.104840
2764,2.104720
2765,2.104840
2766,2.104760
2767,2.104710
2768,2.104820
2769,2.104550
2770,2.104670
2771,2.104780
2772,2.104630
2773,2.104670
2774,2.104760
2775,2.104690
2776,2.104760
2777,2.104610
2778,2.104510
2779,2.104670
2780,2.104590
2781,2.104780
2782,2.104630
2783,2.104510
2784,2.104650
2785,2.104510
2786,2.104460
2787,2.104550
2788,2.104440
2789,2.104610
2790,2.104590
2791,2.104610
2792,2.104380
2793,2.104480
2794,2.104360
2795,2.104480
2796,2.104440
2797,2.104460
2798,2.104530
2799,2.104340
2800,2.104400
2801,2.104360
2802,2.104400
2803,2.104530
2804,2.104460
2805,2.104360
2806,2.104480
2807,2.104530
2808,2.104400
2809,2.104480
2810,2.104440
2811,2.104530
2812,2.104720
2813,2.104710
2814,2.104710
2815,2.104610
2816,2.104740
2817,2.104740
2818,2.104880
2819,2.104820
2820,2.104880
2821,2.105010
2822,2.104930
2823,2.104920
2824,2.104880
2825,2.105110
2826,2.104950
2827,2.105030
2828,2.104990
2829,2.105240
2830,2.105240
2831,2.105130
2832,2.105160
2833,2.105260
2834,2.105200
2835,2.105110
2836,2.105280
2837,2.105090
2838,2.105240
2839,2.105130
2840,2.105090
2841,2.105160
2842,2.105110
2843,2.105110
2844,2.105130
2845,2.105140
2846,2.105010
2847,2.105090
2848,2.105070
2849,2.105090
2850,2.105090
2851,2.105050
2852,2.105030
2853,2.104950
2854,2.104970
2855,2.104860
2856,2.104860
2857,2.105010
2858,2.104880
2859,2.105050
2860,2.105010
2861,2.104820
2862,2.104930
2863,2.104740
2864,2.104860
2865,2.104820
2866,2.104900
2867,2.104860
2868,2.104690
2869,2.104840
2870,2.104710
2871,2.104650
2872,2.104650
2873,2.104920
2874,2.104630
2875,2.104710
2876,2.104760
2877,2.104570
2878,2.104690
2879,2.104630
2880,2.104610
2881,2.104710
2882,2.104630
2883,2.104590
2884,2.104530
2885,2.104650
2886,2.104570
2887,2.104460
2888,2.104690
2889,2.104550
2890,2.104460
2891,2.104500
2892,2.104460
2893,2.104460
2894,2.104320
2895,2.104570
2896,2.104360
2897,2.104480
2898,2.104290
2899,2.104400
2900,2.104400
2901,2.104300
2902,2.104400
2903,2.104290
2904,2.104320
2905,2.104360
2906,2.104340
2907,2.104360
2908,2.104320
2909,2.104210
2910,2.104300
2911,2.104300
2912,2.104250
2913,2.104250
2914,2.104270
2915,2.104230
2916,2.104250
2917,2.104250
2918,2.104320
2919,2.104150
2920,2.104110
2921,2.104130
2922,2.104190
2923,2.104130
2924,2.104060
2925,2.104130
2926,2.104230
2927,2.104110
2928,2.104250
2929,2.104070
2930,2.104020
2931,2.104170
2932,2.103830
2933,2.104060
2934,2.104040
2935,2.104060
2936,2.103920
2937,2.103900
2938,2.103960
2939,2.103900
2940,2.103960
2941,2.104040
2942,2.104060
2943,2.104000
2944,2.103860
2945,2.103880
2946,2.103920
2947,2.103770
2948,2.103850
2949,2.103810
2950,2.103850
2951,2.103860
2952,2.103880
2953,2.103960
2954,2.103960
2955,2.103920
2956,2.103960
2957,2.103980
2958,2.104040
2959,2.104070
2960,2.103980
2961,2.104230
2962,2.104150
2963,2.104230
2964,2.104210
2965,2.104230
2966,2.104270
2967,2.104340
2968,2.104340
2969,2.104380
2970,2.104460
2971,2.104500
2972,2.104510
2973,2.104500
2974,2.104510
2975,2.104630
2976,2.104530
2977,2.104610
2978,2.104690
2979,2.104780
2980,2.104780
2981,2.104650
2982,2.104920
2983,2.104710
2984,2.104800
2985,2.104990
2986,2.104950
2987,2.105030
2988,2.104970
2989,2.105140
2990,2.104990
2991,2.105070
2992,2.105220
2993,2.105030
2994,2.105260
2995,2.105300
2996,2.105220
2997,2.105220
2998,2.105320
2999,2.105280
3000,2.105260
3001,2.105280
3002,2.105470
3003,2.105430
3004,2.105510
3005,2.105550
3006,2.105620
3007,2.105490
3008,2.105550
3009,2.105620
3010,2.105660
3011,2.105660
3012,2.105680
3013,2.105930
3014,2.105810
3015,2.105890
3016,2.105760
3017,2.105810
3018,2.105850
3019,2.105870
3020,2.105870
3021,2.105810
3022,2.105910
3023,2.105760
3024,2.105810
3025,2.105930
3026,2.105790
3027,2.105620
3028,2.105810
3029,2.105660
3030,2.105740
3031,2.105660
3032,2.105560
3033,2.105550
3034,2.105430
3035,2.105450
3036,2.105580
3037,2.105530
3038,2.105490
3039,2.105410
3040,2.105410
3041,2.105450
3042,2.105390
3043,2.105450
3044,2.105390
3045,2.105430
3046,2.105370
3047,2.105450
3048,2.105340
3049,2.105410
3050,2.105260
3051,2.105350
3052,2.105300
3053,2.105300
3054,2.105340
3055,2.105130
3056,2.105280
3057,2.105200
3058,2.105200
3059,2.104990
3060,2.105220
3061,2.105180
3062,2.105030
3063,2.105010
3064,2.105090
3065,2.105070
3066,2.105130
3067,2.105130
3068,2.105090
3069,2.104950
3070,2.105050
3071,2.105110
3072,2.105130
3073,2.104990
3074,2.104820
3075,2.104950
3076,2.104930
3077,2.104930
3078,2.104900
3079,2.105010
3080,2.104880
3081,2.104900
3082,2.104930
3083,2.104800
3084,2.104860
3085,2.104820
3086,2.104860
3087,2.104920
3088,2.104900
3089,2.104800
3090,2.104920
3091,2.104840
3092,2.104720
3093,2.104740
3094,2.104760
3095,2.104650
3096,2.104670
3097,2.104780
3098,2.104740
3099,2.104710
3100,2.104740
3101,2.104610
3102,2.104690
3103,2.104710
3104,2.104710
3105,2.104590
3106,2.104610
3107,2.104530
3108,2.104550
3109,2.104550
3110,2.104500
3111,2.104590
3112,2.104530
3113,2.104610
3114,2.104550
3115,2.104440
3116,2.104510
3117,2.104570
3118,2.104480
3119,2.104510
3120,2.104500
3121,2.104550
3122,2.104440
3123,2.104500
3124,2.104340
3125,2.104380
3126,2.104500
3127,2.104400
3128,2.104320
3129,2.104340
3130,2.104500
3131,2.104400
3132,2.104270
3133,2.104440
3134,2.104340
3135,2.104290
3136,2.104320
3137,2.104290
3138,2.104290
3139,2.104250
3140,2.104300
3141,2.104230
3142,2.104340
3143,2.104320
3144,2.104290
3145,2.104190
3146,2.104210
3147,2.104170
3148,2.104230
3149,2.104290
3150,2.104300
3151,2.104190
3152,2.104250
3153,2.104170
3154,2.104250
3155,2.104070
3156,2.104170
3157,2.104170
3158,2.104130
3159,2.104250
3160,2.104290
3161,2.104270
3162,2.104130
3163,2.104210
3164,2.104110
3165,2.104230
3166,2.104170
3167,2.104090
3168,2.104150
3169,2.104340
3170,2.104230
3171,2.104130
3172,2.104210
3173,2.104170
3174,2.104210
3175,2.104090
3176,2.104230
3177,2.104230
3178,2.104190
3179,2.104210
3180,2.104290
3181,2.104150
3182,2.104250
3183,2.104170
3184,2.104090
3185,2.104250
3186,2.104170
3187,2.104150
3188,2.104090
3189,2.104210
3190,2.104040
3191,2.104190
3192,2.104150
3193,2.104110
3194,2.104150
3195,2.104110
3196,2.104070
3197,2.104020
3198,2.104170
3199,2.104020
3200,2.104190
3201,2.104070
3202,2.104130
3203,2.104070
3204,2.104000
3205,2.104130
3206,2.104040
3207,2.103980
3208,2.104190
3209,2.104190
3210,2.104060
3211,2.104090
3212,2.104190
3213,2.104020
3214,2.104110
3215,2.104020
3216,2.104090
3217,2.104130
3218,2.103940
3219,2.104230
3220,2.104000
3221,2.104040
3222,2.104130
3223,2.104000
3224,2.104070
3225,2.103900
3226,2.103960
3227,2.104210
3228,2.104020
3229,2.104070
3230,2.104090
3231,2.104040
3232,2.104110
3233,2.104000
3234,2.104110
3235,2.104130
3236,2.104060
3237,2.103920
3238,2.103860
3239,2.104040
3240,2.104190
3241,2.104090
3242,2.104020
3243,2.104000
3244,2.104190
3245,2.104040
3246,2.104170
3247,2.104070
3248,2.104000
3249,2.103860
3250,2.103880
3251,2.103900
3252,2.104000
3253,2.103900
3254,2.103940
3255,2.103830
3256,2.103860
3257,2.103850
3258,2.103960
3259,2.103960
3260,2.103830
3261,2.103880
3262,2.103850
3263,2.103830
3264,2.103900
3265,2.103770
3266,2.103690
3267,2.104020
3268,2.103850
3269,2.103900
3270,2.103690
3271,2.103790
3272,2.103940
3273,2.103830
3274,2.103830
3275,2.103730
3276,2.103790
3277,2.103790
3278,2.103770
3279,2.103670
3280,2.103650
3281,2.103750
3282,2.103810
3283,2.103770
3284,2.103770
3285,2.103650
3286,2.103620
3287,2.103670
3288,2.103710
3289,2.103500
3290,2.103640
3291,2.103440
3292,2.103540
3293,2.103670
3294,2.103600
3295,2.103650
3296,2.103520
3297,2.103620
3298,2.103600
3299,2.103460
3300,2.103670
3301,2.103620
3302,2.103580
3303,2.103620
3304,2.103560
3305,2.103460
3306,2.103520
3307,2.103410
3308,2.103480
3309,2.103580
3310,2.103460
3311,2.103410
3312,2.103440
3313,2.103580
3314,2.103430
3315,2.103500
3316,2.103410
3317,2.103390
3318,2.103390
3319,2.103390
3320,2.103270
3321,2.103250
3322,2.103390
3323,2.103310
3324,2.103290
3325,2.103390
3326,2.103330
3327,2.103220
3328,2.103310
3329,2.103310
3330,2.103230
3331,2.103270
3332,2.103270
3333,2.103270
3334,2.103100
3335,2.103220
3336,2.103140
3337,2.103250
3338,2.103250
3339,2.103140
3340,2.103160
3341,2.103180
3342,2.103250
3343,2.103250
3344,2.103200
3345,2.103250
3346,2.103160
3347,2.103040
3348,2.103200
3349,2.102990
3350,2.103060
3351,2.102970
3352,2.103010
3353,2.103080
3354,2.102930
3355,2.102990
3356,2.102870
3357,2.102930
3358,2.102990
3359,2.102930
3360,2.102870
3361,2.103060
3362,2.102970
3363,2.102830
3364,2.102910
3365,2.102830
3366,2.102810
3367,2.102910
3368,2.102950
3369,2.102850
3370,2.102850
3371,2.102780
3372,2.102870
3373,2.102800
3374,2.102700
3375,2.102680
3376,2.102740
3377,2.102740
3378,2.102660
3379,2.102830
3380,2.102640
3381,2.102590
3382,2.102680
3383,2.102620
3384,2.102640
3385,2.102590
3386,2.102550
3387,2.102470
3388,2.102510
3389,2.102470
3390,2.102490
3391,2.102570
3392,2.102450
3393,2.102300
3394,2.102590
3395,2.102380
3396,2.102620
3397,2.102490
3398,2.102490
3399,2.102410
3400,2.102490
3401,2.102360
3402,2.102360
3403,2.102450
3404,2.102410
3405,2.102430
3406,2.102390
3407,2.102320
3408,2.102280
3409,2.102430
3410,2.102340
3411,2.102360
3412,2.102260
3413,2.102410
3414,2.102280
3415,2.102360
3416,2.102300
3417,2.102220
3418,2.102390
3419,2.102360
3420,2.102280
3421,2.102360
3422,2.102280
3423,2.102280
3424,2.102170
3425,2.102200
3426,2.102170
3427,2.102110
3428,2.102130
3429,2.102150
3430,2.102050
3431,2.102240
3432,2.101990
3433,2.101990
3434,2.101960
3435,2.101990
3436,2.102030
3437,2.102200
3438,2.102010
3439,2.102010
3440,2.102220
3441,2.102070
3442,2.102010
3443,2.102010
3444,2.102010
3445,2.101970
3446,2.101990
3447,2.101990
3448,2.101970
3449,2.101970
3450,2.101940
3451,2.101920
3452,2.102090
3453,2.101880
3454,2.101920
3455,2.101860
3456,2.101800
3457,2.101800
3458,2.101760
3459,2.101780
3460,2.101860
3461,2.101780
3462,2.101750
3463,2.101710
3464,2.101760
3465,2.101730
3466,2.101630
3467,2.101820
3468,2.101630
3469,2.101670
3470,2.101670
3471,2.101590
3472,2.101650
3473,2.101540
3474,2.101610
3475,2.101500
3476,2.101540
3477,2.101570
3478,2.101520
3479,2.101590
3480,2.101460
3481,2.101550
3482,2.101440
3483,2.101380
3484,2.101380
3485,2.101360
3486,2.101420
3487,2.101400
3488,2.101270
3489,2.101330
3490,2.101250
3491,2.101130
3492,2.101310
3493,2.101150
3494,2.101250
3495,2.101230
3496,2.101230
3497,2.101270
3498,2.101230
3499,2.101210
3500,2.101120
3501,2.101270
3502,2.101100
3503,2.101150
3504,2.101120
3505,2.100980
3506,2.101120
3507,2.101040
3508,2.101100
3509,2.101130
3510,2.100980
3511,2.101020
3512,2.101000
3513,2.101000
3514,2.101000
3515,2.100910
3516,2.100980
3517,2.100830
3518,2.100960
3519,2.100870
3520,2.100850
3521,2.100790
3522,2.100830
3523,2.100790
3524,2.100920
3525,2.100920
3526,2.100870
3527,2.100790
3528,2.100790
3529,2.100810
3530,2.100770
3531,2.100560
3532,2.100730
3533,2.100680
3534,2.100730
3535,2.100680
3536,2.100580
3537,2.100600
3538,2.100660
3539,2.100580
3540,2.100580
3541,2.100520
3542,2.100620
3543,2.100730
3544,2.100640
3545,2.100580
3546,2.100540
3547,2.100500
3548,2.100470
3549,2.100500
3550,2.100450
3551,2.100580
3552,2.100450
3553,2.100470
3554,2.100410
3555,2.100560
3556,2.100410
3557,2.100430
3558,2.100540
3559,2.100520
3560,2.100430
3561,2.100330
3562,2.100310
3563,2.100490
3564,2.100390
3565,2.100220
3566,2.100200
3567,2.100220
3568,2.100500
3569,2.100280
3570,2.100350
3571,2.100370
3572,2.100330
3573,2.100310
3574,2.100220
3575,2.100240
3576,2.100200
3577,2.100240
3578,2.100080
3579,2.100280
3580,2.100160
3581,2.100260
3582,2.100180
3583,2.100120
3584,2.100180
3585,2.100120
3586,2.100160
3587,2.100030
3588,2.099990
3589,2.100100
3590,2.100100
3591,2.100050
3592,2.100010
3593,2.100100
3594,2.099950
3595,2.099970
3596,2.100030
3597,2.099990
3598,2.099910
3599,2.099890
3600,2.099930
3601,2.099950
3602,2.099990
3603,2.099760
3604,2.099800
3605,2.099610
3606,2.099530
3607,2.099470
3608,2.099450
3609,2.099440
3610,2.099280
3611,2.099000
3612,2.099020
3613,2.098900
3614,2.098750
3615,2.098590
3616,2.098630
3617,2.098580
3618,2.098460
3619,2.098400
3620,2.098440
3621,2.098190
3622,2.098230
3623,2.098080
3624,2.098020
3625,2.098060
3626,2.098040
3627,2.097960
3628,2.097850
3629,2.097790
3630,2.097750
3631,2.097640
3632,2.097620
3633,2.097640
3634,2.097620
3635,2.097600
3636,2.097350
3637,2.097430
3638,2.097510
3639,2.097350
3640,2.097240
3641,2.097320
3642,2.097240
3643,2.097140
3644,2.097050
3645,2.097070
3646,2.097030
3647,2.096950
3648,2.096970
3649,2.097010
3650,2.096970
3651,2.096900
3652,2.096840
3653,2.096880
3654,2.096860
3655,2.096800
3656,2.096760
3657,2.096840
3658,2.096760
3659,2.096840
3660,2.096740
3661,2.096670
3662,2.096740
3663,2.096880
3664,2.096780
3665,2.096780
3666,2.096630
3667,2.096610
3668,2.096690
3669,2.096550
3670,2.096610
3671,2.096550
3672,2.096490
3673,2.096400
3674,2.096550
3675,2.096480
3676,2.096490
3677,2.096460
3678,2.096360
3679,2.096420
3680,2.096320
3681,2.096460
3682,2.096380
3683,2.096360
3684,2.096380
3685,2.096250
3686,2.096280
3687,2.096300
3688,2.096210
3689,2.096130
3690,2.096190
3691,2.096270
3692,2.096170
3693,2.096110
3694,2.096110
3695,2.096060
3696,2.096070
3697,2.096170
3698,2.096070
3699,2.096150
3700,2.096060
3701,2.095860
3702,2.096060
3703,2.095880
3704,2.096000
3705,2.095880
3706,2.095860
3707,2.095900
3708,2.096000
3709,2.095830
3710,2.095710
3711,2.095900
3712,2.095730
3713,2.095600
3714,2.095730
3715,2.095750
3716,2.095830
3717,2.095600
3718,2.095620
3719,2.095480
3720,2.095600
3721,2.095580
3722,2.095500
3723,2.095560
3724,2.095580
3725,2.095580
3726,2.095500
3727,2.095460
3728,2.095430
3729,2.095390
3730,2.095480
3731,2.095270
3732,2.095350
3733,2.095270
3734,2.095350
3735,2.095220
3736,2.094950
3737,2.094990
3738,2.094970
3739,2.094910
3740,2.094870
3741,2.094660
3742,2.094640
3743,2.094600
3744,2.094390
3745,2.094430
3746,2.094340
3747,2.094430
3748,2.094410
3749,2.094220
3750,2.094050
3751,2.094010
3752,2.094030
3753,2.094010
3754,2.094010
3755,2.093970
3756,2.093970
3757,2.093760
3758,2.093730
3759,2.093630
3760,2.093590
3761,2.093550
3762,2.093340
3763,2.093400
3764,2.093380
3765,2.093210
3766,2.093360
3767,2.093210
3768,2.093210
3769,2.093130
3770,2.093000
3771,2.092900
3772,2.092870
3773,2.093150
3774,2.092810
3775,2.092850
3776,2.092680
3777,2.092730
3778,2.092480
3779,2.092540
3780,2.092500
3781,2.092540
3782,2.092450
3783,2.092310
3784,2.092180
3785,2.092140
3786,2.092080
3787,2.091990
3788,2.091970
3789,2.091910
3790,2.091760
3791,2.091720
3792,2.091640
3793,2.091740
3794,2.091530
3795,2.091490
3796,2.091400
3797,2.091360
3798,2.091340
3799,2.091300
3800,2.091190
3801,2.091220
3802,2.091090
3803,2.090960
3804,2.090960
3805,2.090860
3806,2.090880
3807,2.090880
3808,2.090750
3809,2.090710
3810,2.090630
3811,2.090630
3812,2.090520
3813,2.090520
3814,2.090480
3815,2.090480
3816,2.090330
3817,2.090370
3818,2.090210
3819,2.090310
3820,2.090250
3821,2.090140
3822,2.090230
3823,2.090330
3824,2.090000
3825,2.089910
3826,2.090000
3827,2.089930
3828,2.089850
3829,2.089810
3830,2.089890
3831,2.090000
3832,2.089720
3833,2.089720
3834,2.089740
3835,2.089720
3836,2.089640
3837,2.089510
3838,2.089430
3839,2.089450
3840,2.089410
3841,2.089470
3842,2.089220
3843,2.089140
3844,2.089370
3845,2.089180
3846,2.089110
3847,2.089120
3848,2.089120
3849,2.088970
3850,2.088910
3851,2.088950
3852,2.088900
3853,2.088820
3854,2.088860
3855,2.088760
3856,2.088670
3857,2.088650
3858,2.088670
3859,2.088630
3860,2.088470
3861,2.088400
3862,2.088470
3863,2.088320
3864,2.088340
3865,2.088280
3866,2.088360
3867,2.088340
3868,2.088210
3869,2.088040
3870,2.088090
3871,2.088090
3872,2.088050
3873,2.087920
3874,2.088040
3875,2.088000
3876,2.087920
3877,2.087880
3878,2.087810
3879,2.087770
3880,2.087790
3881,2.087690
3882,2.087600
3883,2.087670
3884,2.087600
3885,2.087650
3886,2.087540
3887,2.087410
3888,2.087410
3889,2.087330
3890,2.087420
3891,2.087420
3892,2.087330
3893,2.087270
3894,2.087290
3895,2.087160
3896,2.087140
3897,2.087160
3898,2.086990
3899,2.087060
3900,2.087060
3901,2.087040
3902,2.087000
3903,2.086950
3904,2.086930
3905,2.086790
3906,2.086680
3907,2.086760
3908,2.086740
3909,2.086680
3910,2.086620
3911,2.086570
3912,2.086620
3913,2.086530
3914,2.086510
3915,2.086450
3916,2.086370
3917,2.086200
3918,2.086280
3919,2.086360
3920,2.086110
3921,2.086030
3922,2.086130
3923,2.086150
3924,2.086130
3925,2.085990
3926,2.086050
3927,2.085950
3928,2.085860
3929,2.085880
3930,2.085740
3931,2.085610
3932,2.085730
3933,2.085710
3934,2.085610
3935,2.085590
3936,2.085520
3937,2.085420
3938,2.085400
3939,2.085320
3940,2.085310
3941,2.085190
3942,2.085080
3943,2.085270
3944,2.085080
3945,2.085020
3946,2.085100
3947,2.084980
3948,2.084690
3949,2.084890
3950,2.084830
3951,2.084660
3952,2.084680
3953,2.084520
3954,2.084390
3955,2.084470
3956,2.084350
3957,2.084410
3958,2.084200
3959,2.084330
3960,2.084290
3961,2.084120
3962,2.083930
3963,2.084140
3964,2.084060
3965,2.083990
3966,2.083870
3967,2.083760
3968,2.083660
3969,2.083740
3970,2.083510
3971,2.083530
3972,2.083430
3973,2.083450
3974,2.083260
3975,2.083220
3976,2.083220
3977,2.083130
3978,2.083090
3979,2.083090
3980,2.082940
3981,2.082960
3982,2.082780
3983,2.082820
3984,2.082770
3985,2.082650
3986,2.082570
3987,2.082560
3988,2.082560
3989,2.082590
3990,2.082360
3991,2.082290
3992,2.082230
3993,2.082270
3994,2.082270
3995,2.082170
3996,2.082190
3997,2.082100
3998,2.082080
3999,2.082000
4000,2.081830
4001,2.081730
4002,2.081680
4003,2.081770
4004,2.081540
4005,2.081580
4006,2.081470
4007,2.081520
4008,2.081260
4009,2.081260
4010,2.081260
4011,2.081050
4012,2.081100
4013,2.081070
4014,2.080910
4015,2.081010
4016,2.080890
4017,2.080700
4018,2.080780
4019,2.080630
4020,2.080610
4021,2.080550
4022,2.080570
4023,2.080360
4024,2.080380
4025,2.080360
4026,2.080440
4027,2.080150
4028,2.080110
4029,2.079980
4030,2.080020
4031,2.079810
4032,2.079750
4033,2.079670
4034,2.079630
4035,2.079500
4036,2.079440
4037,2.079390
4038,2.079410
4039,2.079290
4040,2.079230
4041,2.079080
4042,2.078970
4043,2.078830
4044,2.078890
4045,2.078830
4046,2.078680
4047,2.078680
4048,2.078660
4049,2.078530
4050,2.078390
4051,2.078360
4052,2.078220
4053,2.078200
4054,2.078070
4055,2.077950
4056,2.077780
4057,2.077800
4058,2.077760
4059,2.077740
4060,2.077630
4061,2.077420
4062,2.077550
4063,2.077340
4064,2.077060
4065,2.077190
4066,2.077210
4067,2.076940
4068,2.076960
4069,2.076900
4070,2.076750
4071,2.076660
4072,2.076560
4073,2.076430
4074,2.076310
4075,2.076310
4076,2.076160
4077,2.076100
4078,2.076100
4079,2.075820
4080,2.075820
4081,2.075780
4082,2.075660
4083,2.075430
4084,2.075410
4085,2.075320
4086,2.075240
4087,2.075170
4088,2.074940
4089,2.074990
4090,2.074800
4091,2.074710
4092,2.074710
4093,2.074310
4094,2.074500
4095,2.074350
4096,2.074270
4097,2.074060
4098,2.073940
4099,2.073890
4100,2.073660
4101,2.073640
4102,2.073510
4103,2.073300
4104,2.073260
4105,2.073240
4106,2.073070
4107,2.072780
4108,2.072720
4109,2.072570
4110,2.072470
4111,2.072340
4112,2.072240
4113,2.072020
4114,2.072000
4115,2.071940
4116,2.071710
4117,2.071520
4118,2.071250
4119,2.071310
4120,2.071270
4121,2.070970
4122,2.070850
4123,2.070790
4124,2.070620
4125,2.070370
4126,2.070240
4127,2.070260
4128,2.070010
4129,2.069820
4130,2.069610
4131,2.069400
4132,2.069380
4133,2.069040
4134,2.069020
4135,2.068900
4136,2.068540
4137,2.068450
4138,2.068390
4139,2.068120
4140,2.068040
4141,2.067870
4142,2.067640
4143,2.067570
4144,2.067380
4145,2.067280
4146,2.067030
4147,2.066900
4148,2.066730
4149,2.066440
4150,2.066360
4151,2.066230
4152,2.065920
4153,2.065910
4154,2.065870
4155,2.065580
4156,2.065280
4157,2.065310
4158,2.064970
4159,2.064740
4160,2.064630
4161,2.064400
4162,2.064260
4163,2.063940
4164,2.063840
4165,2.063650
4166,2.063460
4167,2.063210
4168,2.063040
4169,2.063060
4170,2.062760
4171,2.062600
4172,2.062430
4173,2.062410
4174,2.061990
4175,2.061930
4176,2.061780
4177,2.061610
4178,2.061510
4179,2.061360
4180,2.060920
4181,2.060690
4182,2.060710
4183,2.060460
4184,2.060370
4185,2.060160
4186,2.059930
4187,2.059810
4188,2.059600
4189,2.059320
4190,2.059200
4191,2.058840
4192,2.058780
4193,2.058480
4194,2.058190
4195,2.058000
4196,2.057770
4197,2.057540
4198,2.057430
4199,2.057120
4200,2.056990
4201,2.056820
4202,2.056530
4203,2.056300
4204,2.056010
4205,2.055880
4206,2.055690
4207,2.055460
4208,2.055310
4209,2.055120
4210,2.054930
4211,2.054930
4212,2.054850
4213,2.054530
4214,2.054370
4215,2.054430
4216,2.054070
4217,2.053800
4218,2.053670
4219,2.053570
4220,2.053280
4221,2.053230
4222,2.053130
4223,2.053000
4224,2.052750
4225,2.052690
4226,2.052580
4227,2.052410
4228,2.052250
4229,2.052140
4230,2.052060
4231,2.052010
4232,2.051700
4233,2.051660
4234,2.051430
4235,2.051470
4236,2.051260
4237,2.051180
4238,2.051010
4239,2.051030
4240,2.050840
4241,2.050780
4242,2.050630
4243,2.050460
4244,2.050250
4245,2.050110
4246,2.050000
4247,2.049710
4248,2.049580
4249,2.049270
4250,2.049140
4251,2.049140
4252,2.048870
4253,2.048850
4254,2.048640
4255,2.048610
4256,2.048470
4257,2.048380
4258,2.048280
4259,2.048220
4260,2.048150
4261,2.048280
4262,2.048240
4263,2.048210
4264,2.048240
4265,2.048110
4266,2.048150
4267,2.048210
4268,2.048240
4269,2.048340
4270,2.048300
4271,2.048280
4272,2.048210
4273,2.048240
4274,2.048240
4275,2.048260
4276,2.048260
4277,2.048360
4278,2.048510
4279,2.048400
4280,2.048530
4281,2.048530
4282,2.048450
4283,2.048490
4284,2.048610
4285,2.048820
4286,2.049030
4287,2.048870
4288,2.048910
4289,2.048970
4290,2.049010
4291,2.049120
4292,2.049200
4293,2.049370
4294,2.049330
4295,2.049470
4296,2.049560
4297,2.049790
4298,2.049920
4299,2.050020
4300,2.050080
4301,2.050110
4302,2.050400
4303,2.050500
4304,2.050730
4305,2.050760
4306,2.050920
4307,2.051030
4308,2.051260
4309,2.051410
4310,2.051490
4311,2.051760
4312,2.051930
4313,2.052160
4314,2.052330
4315,2.052460
4316,2.052850
4317,2.052980
4318,2.053230
4319,2.053700
4320,2.053860
4321,2.054070
4322,2.054510
4323,2.054560
4324,2.054980
4325,2.055540
4326,2.055590
4327,2.055960
4328,2.056170
4329,2.056660
4330,2.056870
4331,2.057290
4332,2.057680
4333,2.057810
4334,2.058360
4335,2.058590
4336,2.058860
4337,2.059490
4338,2.059930
4339,2.060180
4340,2.060690
4341,2.060960
4342,2.061460
4343,2.061860
4344,2.062280
4345,2.062770
4346,2.063120
4347,2.063710
4348,2.063940
4349,2.064340
4350,2.064700
4351,2.065070
4352,2.065500
4353,2.065980
4354,2.066130
4355,2.066380
4356,2.066710
4357,2.066690
4358,2.066990
4359,2.066990
4360,2.067410
4361,2.067590
4362,2.067740
4363,2.067780
4364,2.067820
4365,2.067970
4366,2.068180
4367,2.068270
4368,2.068460
4369,2.068520
4370,2.068710
4371,2.068670
4372,2.068790
4373,2.068830
4374,2.068810
4375,2.068810
4376,2.068810
4377,2.068830
4378,2.068810
4379,2.068850
4380,2.068870
4381,2.068880
4382,2.068940
4383,2.068750
4384,2.068830
4385,2.068900
4386,2.068690
4387,2.068620
4388,2.068600
4389,2.068580
4390,2.068500
4391,2.068500
4392,2.068540
4393,2.068410
4394,2.068350
4395,2.068370
4396,2.068220
4397,2.068140
4398,2.068040
4399,2.068040
4400,2.067950
4401,2.067930
4402,2.067800
4403,2.067760
4404,2.067820
4405,2.067720
4406,2.067660
4407,2.067490
4408,2.067470
4409,2.067450
4410,2.067410
4411,2.067360
4412,2.067280
4413,2.067260
4414,2.067260
4415,2.067070
4416,2.067050
4417,2.066990
4418,2.066880
4419,2.066900
4420,2.066820
4421,2.066840
4422,2.066670
4423,2.066750
4424,2.066540
4425,2.066710
4426,2.066610
4427,2.066540
4428,2.066570
4429,2.066460
4430,2.066250
4431,2.066230
4432,2.066150
4433,2.066130
4434,2.066230
4435,2.066100
4436,2.065980
4437,2.066040
4438,2.066000
4439,2.066020
4440,2.065850
4441,2.065870
4442,2.065700
4443,2.065620
4444,2.065520
4445,2.065710
4446,2.065500
4447,2.065470
4448,2.065310
4449,2.065310
4450,2.065260
4451,2.065330
4452,2.065140
4453,2.065050
4454,2.065180
4455,2.065030
4456,2.064860
4457,2.064950
4458,2.064870
4459,2.064800
4460,2.064890
4461,2.064760
4462,2.064630
4463,2.064780
4464,2.064630
4465,2.064470
4466,2.064610
4467,2.064320
4468,2.064260
4469,2.064240
4470,2.064210
4471,2.064230
4472,2.064090
4473,2.064170
4474,2.064050
4475,2.063880
4476,2.063840
4477,2.063900
4478,2.063880
4479,2.063820
4480,2.063730
4481,2.063770
4482,2.063750
4483,2.063650
4484,2.063560
4485,2.063670
4486,2.063610
4487,2.063540
4488,2.063540
4489,2.063440
4490,2.063480
4491,2.063610
4492,2.063440
4493,2.063420
4494,2.063350
4495,2.063310
4496,2.063370
4497,2.063330
4498,2.063250
4499,2.063190
4500,2.063190
4501,2.063230
4502,2.063000
4503,2.062970
4504,2.063160
4505,2.063180
4506,2.063100
4507,2.063100
4508,2.062970
4509,2.063060
4510,2.063040
4511,2.063040
4512,2.062930
4513,2.063080
4514,2.063120
4515,2.063020
4516,2.062890
4517,2.062970
4518,2.063140
4519,2.062970
4520,2.063120
4521,2.063020
4522,2.062910
4523,2.062890
4524,2.062770
4525,2.062760
4526,2.062550
4527,2.062580
4528,2.062490
4529,2.062530
4530,2.062410
4531,2.062550
4532,2.062340
4533,2.062280
4534,2.062240
4535,2.062350
4536,2.062200
4537,2.062180
4538,2.062140
4539,2.061930
4540,2.062050
4541,2.061740
4542,2.061820
4543,2.061950
4544,2.061820
4545,2.061880
4546,2.061700
4547,2.061530
4548,2.061530
4549,2.061460
4550,2.061400
4551,2.061300
4552,2.061250
4553,2.061280
4554,2.061510
4555,2.061360
4556,2.061340
4557,2.061070
4558,2.061150
4559,2.061190
4560,2.061060
4561,2.060980
4562,2.061110
4563,2.060830
4564,2.060850
4565,2.060730
4566,2.060730
4567,2.060690
4568,2.060460
4569,2.060440
4570,2.060540
4571,2.060430
4572,2.060390
4573,2.060330
4574,2.060290
4575,2.060270
4576,2.060220
4577,2.060200
4578,2.060270
4579,2.060180
4580,2.060060
4581,2.059910
4582,2.059990
4583,2.059990
4584,2.059720
4585,2.059870
4586,2.059720
4587,2.059720
4588,2.059740
4589,2.059680
4590,2.058970
4591,2.058920
4592,2.058940
4593,2.058800
4594,2.058760
4595,2.058780
4596,2.058520
4597,2.058540
4598,2.058380
4599,2.058420
4600,2.058120
4601,2.058020
4602,2.058000
4603,2.057980
4604,2.057910
4605,2.057770
4606,2.057700
4607,2.057620
4608,2.057430
4609,2.057290
4610,2.057240
4611,2.057200
4612,2.056970
4613,2.056870
4614,2.056890
4615,2.056660
4616,2.056630
4617,2.056320
4618,2.056380
4619,2.056110
4620,2.055860
4621,2.055770
4622,2.055670
4623,2.055420
4624,2.055420
4625,2.055440
4626,2.055310
4627,2.055120
4628,2.055080
4629,2.054700
4630,2.054660
4631,2.054390
4632,2.054280
4633,2.054160
4634,2.053970
4635,2.053860
4636,2.053550
4637,2.053340
4638,2.053110
4639,2.053060
4640,2.052810
4641,2.052670
4642,2.052390
4643,2.052200
4644,2.052040
4645,2.051680
4646,2.051360
4647,2.051150
4648,2.050880
4649,2.050690
4650,2.050480
4651,2.050320
4652,2.050170
4653,2.049960
4654,2.049730
4655,2.049330
4656,2.049180
4657,2.048930
4658,2.048630
4659,2.048430
4660,2.048130
4661,2.047920
4662,2.047630
4663,2.047480
4664,2.047210
4665,2.046950
4666,2.046850
4667,2.046620
4668,2.046470
4669,2.046370
4670,2.045910
4671,2.045910
4672,2.045630
4673,2.045570
4674,2.045280
4675,2.045110
4676,2.044860
4677,2.044810
4678,2.044580
4679,2.044410
4680,2.044270
4681,2.044080
4682,2.043970
4683,2.043620
4684,2.043570
4685,2.043340
4686,2.043160
4687,2.042940
4688,2.042800
4689,2.042550
4690,2.042310
4691,2.042100
4692,2.041920
4693,2.041810
4694,2.041580
4695,2.041450
4696,2.041160
4697,2.040950
4698,2.040780
4699,2.040610
4700,2.040530
4701,2.040220
4702,2.040030
4703,2.039880
4704,2.039630
4705,2.039420
4706,2.039290
4707,2.038980
4708,2.038870
4709,2.038850
4710,2.038700
4711,2.038600
4712,2.038470
4713,2.038450
4714,2.038180
4715,2.038090
4716,2.038090
4717,2.037880
4718,2.037720
4719,2.037760
4720,2.037680
4721,2.037610
4722,2.037740
4723,2.037400
4724,2.037280
4725,2.037460
4726,2.037420
4727,2.037260
4728,2.037280
4729,2.037260
4730,2.036920
4731,2.037070
4732,2.036880
4733,2.036790
4734,2.036920
4735,2.036710
4736,2.036540
4737,2.036440
4738,2.036350
4739,2.036250
4740,2.036460
4741,2.036180
4742,2.036200
4743,2.036270
4744,2.036040
4745,2.036040
4746,2.036040
4747,2.035970
4748,2.036020
