cycle number,Ewe/V
1,2.102600
2,2.098840
3,2.096110
4,2.093730
5,2.091760
6,2.090040
7,2.088650
8,2.087390
9,2.086260
10,2.085040
11,2.083930
12,2.083150
13,2.082250
14,2.081390
15,2.080650
16,2.079770
17,2.079020
18,2.078430
19,2.077900
20,2.077230
21,2.076480
22,2.076100
23,2.075490
24,2.074940
25,2.074350
26,2.073830
27,2.073350
28,2.072990
29,2.072510
30,2.072070
31,2.071630
32,2.071040
33,2.070760
34,2.070390
35,2.069780
36,2.069440
37,2.069190
38,2.068710
39,2.068480
40,2.068010
41,2.067720
42,2.067430
43,2.066920
44,2.066540
45,2.066230
46,2.065920
47,2.065540
48,2.065200
49,2.064930
50,2.064650
51,2.064380
52,2.064030
53,2.063860
54,2.063440
55,2.063160
56,2.062830
57,2.062560
58,2.062300
59,2.062030
60,2.061760
61,2.061570
62,2.061270
63,2.060900
64,2.060560
65,2.060350
66,2.060100
67,2.059740
68,2.059640
69,2.059320
70,2.059010
71,2.058860
72,2.058590
73,2.058400
74,2.058170
75,2.058020
76,2.057680
77,2.057330
78,2.057080
79,2.056950
80,2.056590
81,2.056420
82,2.056300
83,2.055960
84,2.055730
85,2.055520
86,2.055290
87,2.054950
88,2.054870
89,2.054560
90,2.054330
91,2.054160
92,2.053880
93,2.053740
94,2.053480
95,2.053230
96,2.053040
97,2.052690
98,2.052540
99,2.052270
100,2.052200
101,2.051810
102,2.051760
103,2.051470
104,2.051260
105,2.051070
106,2.050860
107,2.050570
108,2.050420
109,2.050320
110,2.050100
111,2.049830
112,2.049680
113,2.049520
114,2.049200
115,2.049030
116,2.048820
117,2.048640
118,2.048530
119,2.048240
120,2.048170
121,2.047800
122,2.047750
123,2.047440
124,2.047270
125,2.047100
126,2.047040
127,2.046640
128,2.046560
129,2.046370
130,2.046310
131,2.045970
132,2.045760
133,2.045590
134,2.045550
135,2.045210
136,2.045190
137,2.045020
138,2.044840
139,2.044650
140,2.044330
141,2.044230
142,2.044060
143,2.043850
144,2.043740
145,2.043680
146,2.043360
147,2.043240
148,2.043070
149,2.043110
150,2.042760
151,2.042690
152,2.042440
153,2.042340
154,2.042060
155,2.041900
156,2.041790
157,2.041640
158,2.041410
159,2.041310
160,2.041180
161,2.040990
162,2.040870
163,2.040590
164,2.040450
165,2.040550
166,2.040170
167,2.039980
168,2.039780
169,2.039570
170,2.039560
171,2.039500
172,2.039360
173,2.039270
174,2.038930
175,2.038850
176,2.038700
177,2.038560
178,2.038600
179,2.038260
180,2.037950
181,2.037970
182,2.037910
183,2.037760
184,2.037550
185,2.037470
186,2.037190
187,2.037130
188,2.036980
189,2.036670
190,2.036750
191,2.036620
192,2.036420
193,2.036420
194,2.036120
195,2.036140
196,2.035970
197,2.035770
198,2.035620
199,2.035560
200,2.035410
201,2.035320
202,2.035320
203,2.035160
204,2.034950
205,2.034860
206,2.034670
207,2.034570
208,2.034550
209,2.034250
210,2.034250
211,2.034130
212,2.033960
213,2.033810
214,2.033750
215,2.033670
216,2.033500
217,2.033310
218,2.033310
219,2.033120
220,2.032890
221,2.032930
222,2.032680
223,2.032720
224,2.032550
225,2.032340
226,2.032240
227,2.032110
228,2.032010
229,2.031940
230,2.031710
231,2.031630
232,2.031610
233,2.031420
234,2.031290
235,2.031250
236,2.031060
237,2.031060
238,2.030810
239,2.030680
240,2.030600
241,2.030410
242,2.030450
243,2.030260
244,2.030180
245,2.029910
246,2.029860
247,2.029590
248,2.029650
249,2.029510
250,2.029420
251,2.029320
252,2.029170
253,2.028920
254,2.028820
255,2.028650
256,2.028630
257,2.028480
258,2.028440
259,2.028330
260,2.028210
261,2.028080
262,2.027930
263,2.027740
264,2.027700
265,2.027640
266,2.027560
267,2.027510
268,2.027300
269,2.027140
270,2.027090
271,2.026800
272,2.026760
273,2.026690
274,2.026480
275,2.026340
276,2.026230
277,2.026250
278,2.025870
279,2.025900
280,2.025660
281,2.025520
282,2.025440
283,2.025310
284,2.025430
285,2.025120
286,2.025080
287,2.025060
288,2.024910
289,2.024870
290,2.024640
291,2.024510
292,2.024530
293,2.024380
294,2.024300
295,2.024150
296,2.024030
297,2.023900
298,2.023760
299,2.023570
300,2.023540
301,2.023460
302,2.023340
303,2.023210
304,2.023080
305,2.023080
306,2.022850
307,2.022770
308,2.022710
309,2.022540
310,2.022390
311,2.022280
312,2.022120
313,2.022080
314,2.021860
315,2.021800
316,2.021630
317,2.021490
318,2.021440
319,2.021340
320,2.021320
321,2.021050
322,2.021070
323,2.020790
324,2.020770
325,2.020730
326,2.020440
327,2.020420
328,2.020350
329,2.020270
330,2.020060
331,2.020060
332,2.019830
333,2.019770
334,2.019640
335,2.019560
336,2.019410
337,2.019260
338,2.019260
339,2.019010
340,2.019010
341,2.018820
342,2.018780
343,2.018590
344,2.018550
345,2.018460
346,2.018320
347,2.018070
348,2.018060
349,2.017920
350,2.017920
351,2.017790
352,2.017640
353,2.017600
354,2.017540
355,2.017390
356,2.017330
357,2.017040
358,2.017040
359,2.016910
360,2.016800
361,2.016800
362,2.016530
363,2.016510
364,2.016490
365,2.016260
366,2.016150
367,2.016130
368,2.016070
369,2.015880
370,2.015750
371,2.015630
372,2.015540
373,2.015420
374,2.015380
375,2.015330
376,2.015060
377,2.015080
378,2.015060
379,2.014920
380,2.014750
381,2.014710
382,2.014620
383,2.014480
384,2.014370
385,2.014310
386,2.014260
387,2.014200
388,2.014160
389,2.014030
390,2.013680
391,2.013680
392,2.013700
393,2.013550
394,2.013510
395,2.013320
396,2.013110
397,2.013260
398,2.013110
399,2.013010
400,2.012690
401,2.012580
402,2.012670
403,2.012690
404,2.012480
405,2.012350
406,2.012310
407,2.012100
408,2.012000
409,2.011980
410,2.011790
411,2.011810
412,2.011700
413,2.011660
414,2.011580
415,2.011580
416,2.011430
417,2.011240
418,2.011260
419,2.011160
420,2.011030
421,2.011010
422,2.010950
423,2.010840
424,2.010860
425,2.010650
426,2.010590
427,2.010570
428,2.010490
429,2.010490
430,2.010320
431,2.010320
432,2.010150
433,2.010190
434,2.010130
435,2.009880
436,2.009790
437,2.009790
438,2.009840
439,2.009560
440,2.009600
441,2.009440
442,2.009410
443,2.009390
444,2.009210
445,2.009230
446,2.009200
447,2.008910
448,2.009060
449,2.008990
450,2.008740
451,2.008740
452,2.008700
453,2.008660
454,2.008570
455,2.008510
456,2.008410
457,2.008320
458,2.008300
459,2.008180
460,2.008070
461,2.008010
462,2.007950
463,2.007760
464,2.007840
465,2.007730
466,2.007800
467,2.007730
468,2.007610
469,2.007650
470,2.007530
471,2.007570
472,2.007530
473,2.007520
474,2.007630
475,2.007500
476,2.007480
477,2.007460
478,2.007520
479,2.007480
480,2.007530
481,2.007520
482,2.007460
483,2.007570
484,2.007480
485,2.007500
486,2.007550
487,2.007590
488,2.007740
489,2.007710
490,2.007610
491,2.007820
492,2.007730
493,2.007760
494,2.007820
495,2.007690
496,2.007900
497,2.007940
498,2.007820
499,2.007820
500,2.007840
501,2.007920
502,2.007940
503,2.007970
504,2.008130
505,2.008010
506,2.008010
507,2.008030
508,2.008130
509,2.008150
510,2.008300
511,2.008220
512,2.008320
513,2.008300
514,2.008390
515,2.008370
516,2.008390
517,2.008470
518,2.008430
519,2.008390
520,2.008660
521,2.008620
522,2.008680
523,2.008810
524,2.008620
525,2.008600
526,2.008870
527,2.008810
528,2.008810
529,2.008850
530,2.008930
531,2.008830
532,2.008970
533,2.008870
534,2.008810
535,2.008780
536,2.008790
537,2.008740
538,2.008660
539,2.008720
540,2.008660
541,2.008510
542,2.008490
543,2.008450
544,2.008300
545,2.008280
546,2.008200
547,2.008150
548,2.008130
549,2.008160
550,2.008150
551,2.008010
552,2.007950
553,2.007900
554,2.007900
555,2.007920
556,2.007780
557,2.007740
558,2.007760
559,2.007520
560,2.007590
561,2.007460
562,2.007400
563,2.007340
564,2.007440
565,2.007380
566,2.007380
567,2.007290
568,2.007150
569,2.007290
570,2.007190
571,2.007190
572,2.007130
573,2.007060
574,2.007110
575,2.007150
576,2.007000
577,2.006900
578,2.006940
579,2.006960
580,2.006940
581,2.006940
582,2.007000
583,2.006850
584,2.006870
585,2.006750
586,2.006870
587,2.006960
588,2.006850
589,2.006850
590,2.006730
591,2.006660
592,2.006660
593,2.006730
594,2.006620
595,2.006560
596,2.006600
597,2.006480
598,2.006580
599,2.006470
600,2.006520
601,2.006520
602,2.006500
603,2.006480
604,2.006620
605,2.006470
606,2.006410
607,2.006480
608,2.006540
609,2.006480
610,2.006480
611,2.006430
612,2.006520
613,2.006390
614,2.006470
615,2.006410
616,2.006330
617,2.006290
618,2.006330
619,2.006240
620,2.006160
621,2.006060
622,2.005890
623,2.005910
624,2.005930
625,2.005950
626,2.005950
627,2.005890
628,2.005910
629,2.005800
630,2.005850
631,2.005660
632,2.005700
633,2.005680
634,2.005570
635,2.005700
636,2.005590
637,2.005640
638,2.005470
639,2.005400
640,2.005300
641,2.005260
642,2.005240
643,2.005170
644,2.005240
645,2.005240
646,2.004960
647,2.004920
648,2.004880
649,2.004860
650,2.004860
651,2.004690
652,2.004820
653,2.004690
654,2.004650
655,2.004590
656,2.004520
657,2.004480
658,2.004420
659,2.004500
660,2.004330
661,2.004190
662,2.004100
663,2.004120
664,2.004150
665,2.003980
666,2.003910
667,2.003910
668,2.003930
669,2.003890
670,2.003700
671,2.003730
672,2.003770
673,2.003720
674,2.003510
675,2.003470
676,2.003600
677,2.003450
678,2.003410
679,2.003390
680,2.003390
681,2.003120
682,2.003280
683,2.003260
684,2.003220
685,2.003240
686,2.003100
687,2.003050
688,2.002950
689,2.002860
690,2.002910
691,2.002950
692,2.002860
693,2.002760
694,2.002760
695,2.002720
696,2.002550
697,2.002440
698,2.002610
699,2.002340
700,2.002340
701,2.002320
702,2.002260
703,2.002280
704,2.002210
705,2.002150
706,2.002050
707,2.002000
708,2.002000
709,2.002000
710,2.002040
711,2.001960
712,2.001900
713,2.002000
714,2.001940
715,2.001960
716,2.001980
717,2.001830
718,2.001840
719,2.001770
720,2.001650
721,2.001750
722,2.001620
723,2.001540
724,2.001390
725,2.001440
726,2.001290
727,2.001440
728,2.001270
729,2.001290
730,2.001330
731,2.001140
732,2.001250
733,2.001120
734,2.001100
735,2.001020
736,2.000990
737,2.000970
738,2.001080
739,2.001020
740,2.000990
741,2.000870
742,2.000990
743,2.000890
744,2.000830
745,2.001000
746,2.000870
747,2.000810
748,2.000830
749,2.000910
750,2.000890
751,2.000930
752,2.000930
753,2.000930
754,2.000740
755,2.000780
756,2.000790
757,2.000780
758,2.000640
759,2.000720
760,2.000620
761,2.000570
762,2.000550
763,2.000470
764,2.000570
765,2.000550
766,2.000530
767,2.000550
768,2.000530
769,2.000450
770,2.000600
771,2.000430
772,2.000410
773,2.000390
774,2.000390
775,2.000510
776,2.000410
777,2.000360
778,2.000410
779,2.000430
780,2.000410
781,2.000360
782,2.000410
783,2.000360
784,2.000320
785,2.000160
786,2.000340
787,2.000220
788,2.000300
789,1.999940
790,1.999880
791,2.000010
792,1.999740
793,1.999760
794,1.999880
795,1.999880
796,1.999900
797,1.999970
798,1.999920
799,1.999970
800,2.000200
801,2.000010
802,2.000150
803,2.000220
804,2.000180
805,2.000260
806,2.000220
807,2.000300
808,2.000300
809,2.000280
810,2.000240
811,2.000370
812,2.000200
813,2.000240
814,2.000280
815,2.000090
816,2.000240
817,2.000150
818,2.000200
819,2.000110
820,2.000070
821,1.999900
822,1.999900
823,1.999940
824,1.999990
825,2.000030
826,1.999900
827,1.999860
828,1.999950
829,1.999860
830,1.999820
831,1.999900
832,1.999820
833,1.999820
834,1.999730
835,1.999820
836,1.999730
837,1.999820
838,1.999570
839,1.999550
840,1.999730
841,1.999530
842,1.999590
843,1.999510
844,1.999510
845,1.999590
846,1.999630
847,1.999510
848,1.999610
849,1.999730
850,1.999590
851,1.999760
852,1.999570
853,1.999630
854,1.999710
855,1.999690
856,1.999500
857,1.999570
858,1.999610
859,1.999630
860,1.999510
861,1.999500
862,1.999630
863,1.999610
864,1.999590
865,1.999610
866,1.999500
867,1.999500
868,1.999510
869,1.999420
870,1.999400
871,1.999420
872,1.999440
873,1.999420
874,1.999440
875,1.999290
876,1.999250
877,1.999250
878,1.999460
879,1.999380
880,1.999380
881,1.999420
882,1.999340
883,1.999500
884,1.999420
885,1.999400
886,1.999380
887,1.999500
888,1.999340
889,1.999460
890,1.999290
891,1.999300
892,1.999360
893,1.999250
894,1.999150
895,1.999110
896,1.999150
897,1.999150
898,1.999040
899,1.998960
900,1.998960
901,1.998900
902,1.998810
903,1.998690
904,1.998770
905,1.998850
906,1.998790
907,1.998710
908,1.998660
909,1.998660
910,1.998560
911,1.998660
912,1.998520
913,1.998600
914,1.998500
915,1.998540
916,1.998390
917,1.998430
918,1.998430
919,1.998370
920,1.998270
921,1.998140
922,1.998200
923,1.997990
924,1.998140
925,1.998010
926,1.998030
927,1.997850
928,1.997870
929,1.997850
930,1.997950
931,1.997780
932,1.997780
933,1.997830
934,1.997700
935,1.997760
936,1.997590
937,1.997570
938,1.997590
939,1.997620
940,1.997530
941,1.997590
942,1.997490
943,1.997430
944,1.997470
945,1.997340
946,1.997380
947,1.997340
948,1.997220
949,1.997260
950,1.997200
951,1.997200
952,1.997170
953,1.997110
954,1.996980
955,1.997010
956,1.996980
957,1.996860
958,1.996980
959,1.996880
960,1.996920
961,1.996780
962,1.996730
963,1.996690
964,1.996690
965,1.996570
966,1.996520
967,1.996420
968,1.996420
969,1.996360
970,1.996310
971,1.996250
972,1.996190
973,1.996210
974,1.996080
975,1.996060
976,1.996100
977,1.996000
978,1.995940
979,1.995960
980,1.995980
981,1.995960
982,1.995810
983,1.995770
984,1.995730
985,1.995700
986,1.995730
987,1.995790
988,1.995640
989,1.995560
990,1.995660
991,1.995560
992,1.995600
993,1.995490
994,1.995510
995,1.995540
996,1.995450
997,1.995430
998,1.995410
999,1.995410
1000,1.995280
1001,1.995310
1002,1.995180
1003,1.995260
1004,1.995090
1005,1.995090
1006,1.995180
1007,1.995100
1008,1.994840
1009,1.995050
1010,1.995140
1011,1.995010
1012,1.994930
1013,1.994860
1014,1.994840
1015,1.994880
1016,1.994860
1017,1.994820
1018,1.994650
1019,1.994680
1020,1.994660
1021,1.994840
1022,1.994570
1023,1.994650
1024,1.994510
1025,1.994470
1026,1.994380
1027,1.994280
1028,1.994260
1029,1.994280
1030,1.994190
1031,1.994090
1032,1.994050
1033,1.994030
1034,1.993980
1035,1.994020
1036,1.993750
1037,1.993860
1038,1.993860
1039,1.993790
1040,1.993630
1041,1.993440
1042,1.993540
1043,1.993610
1044,1.993390
1045,1.993350
1046,1.993440
1047,1.993190
1048,1.993400
1049,1.993060
1050,1.993210
1051,1.993120
1052,1.993020
1053,1.993000
1054,1.992870
1055,1.992930
1056,1.992930
1057,1.992830
1058,1.992760
1059,1.992770
1060,1.992720
1061,1.992680
1062,1.992680
1063,1.992580
1064,1.992430
1065,1.992240
1066,1.992350
1067,1.992350
1068,1.992320
1069,1.992180
1070,1.992200
1071,1.992070
1072,1.992090
1073,1.992110
1074,1.991860
1075,1.991930
1076,1.992090
1077,1.991840
1078,1.991920
1079,1.991780
1080,1.991780
1081,1.991720
1082,1.991590
1083,1.991530
1084,1.991530
1085,1.991320
1086,1.991400
1087,1.991400
1088,1.991210
1089,1.991190
1090,1.991110
1091,1.991130
1092,1.991040
1093,1.990980
1094,1.990960
1095,1.990960
1096,1.990810
1097,1.990810
1098,1.990790
1099,1.990690
1100,1.990620
1101,1.990560
1102,1.990520
1103,1.990520
1104,1.990460
1105,1.990350
1106,1.990350
1107,1.990390
1108,1.990290
1109,1.990200
1110,1.990250
1111,1.990370
1112,1.990200
1113,1.990200
1114,1.990200
1115,1.990080
1116,1.989990
1117,1.989950
1118,1.990140
1119,1.990060
1120,1.990120
1121,1.989990
1122,1.990030
1123,1.990060
1124,1.989910
1125,1.990010
1126,1.989910
1127,1.989850
1128,1.989910
1129,1.989970
1130,1.990030
1131,1.989800
1132,1.989870
1133,1.989850
1134,1.989800
1135,1.989820
1136,1.989660
1137,1.989620
1138,1.989720
1139,1.989720
1140,1.989610
1141,1.989530
1142,1.989640
1143,1.989430
1144,1.989550
1145,1.989400
1146,1.989570
1147,1.989570
1148,1.989530
1149,1.989530
1150,1.989470
1151,1.989490
1152,1.989410
1153,1.989360
1154,1.989340
1155,1.989200
1156,1.989300
1157,1.989300
1158,1.989130
1159,1.989150
1160,1.989090
1161,1.989130
1162,1.989150
1163,1.989260
1164,1.989070
1165,1.989010
1166,1.988880
1167,1.988990
1168,1.988900
1169,1.988940
1170,1.988800
1171,1.988820
1172,1.988750
1173,1.988820
1174,1.988650
1175,1.988730
1176,1.988710
1177,1.988650
1178,1.988610
1179,1.988550
1180,1.988310
1181,1.988460
1182,1.988440
1183,1.988310
1184,1.988310
1185,1.988330
1186,1.988150
1187,1.988150
1188,1.988060
1189,1.987980
1190,1.987940
1191,1.988000
1192,1.988000
1193,1.987810
1194,1.987940
1195,1.987940
1196,1.987960
1197,1.987830
1198,1.987710
1199,1.987910
1200,1.987680
1201,1.987640
1202,1.987710
1203,1.987640
1204,1.987660
1205,1.987680
1206,1.987580
1207,1.987520
1208,1.987560
1209,1.989170
1210,1.989200
1211,1.989170
1212,1.989110
1213,1.989170
1214,1.989150
1215,1.989300
1216,1.989090
1217,1.989110
1218,1.988990
1219,1.989030
1220,1.989070
1221,1.989150
1222,1.988960
1223,1.989030
1224,1.988940
1225,1.988970
1226,1.988990
1227,1.988940
1228,1.988990
1229,1.988970
1230,1.988960
1231,1.989010
1232,1.988940
1233,1.989010
1234,1.988970
1235,1.989050
1236,1.988900
1237,1.988990
1238,1.988840
1239,1.988860
1240,1.988820
1241,1.988230
1242,1.988130
1243,1.988000
1244,1.987870
1245,1.987730
1246,1.987660
1247,1.987700
1248,1.987560
1249,1.987520
1250,1.987500
1251,1.987490
1252,1.987370
1253,1.987350
1254,1.987350
1255,1.987410
1256,1.987290
1257,1.987260
1258,1.987200
1259,1.987180
1260,1.987070
1261,1.986990
1262,1.987010
1263,1.987100
1264,1.986950
1265,1.986840
1266,1.986800
1267,1.986930
1268,1.986630
1269,1.986820
1270,1.986590
1271,1.986650
1272,1.986530
1273,1.986700
1274,1.986550
1275,1.986420
1276,1.986400
1277,1.986360
1278,1.986470
1279,1.986360
1280,1.986320
1281,1.986360
1282,1.986320
1283,1.986170
1284,1.986130
1285,1.986020
1286,1.986130
1287,1.986050
1288,1.986020
1289,1.986000
1290,1.985770
1291,1.985880
1292,1.985860
1293,1.985750
1294,1.985730
1295,1.985790
1296,1.985790
1297,1.985670
1298,1.985520
1299,1.985690
1300,1.985690
1301,1.985600
1302,1.985600
1303,1.985480
1304,1.985630
1305,1.985520
1306,1.985560
1307,1.985440
1308,1.985390
1309,1.985390
1310,1.985480
1311,1.985460
1312,1.985500
1313,1.985480
1314,1.985370
1315,1.985330
1316,1.985290
1317,1.985250
1318,1.985290
1319,1.985310
1320,1.985190
1321,1.985190
1322,1.985120
1323,1.984910
1324,1.984930
1325,1.984790
1326,1.984810
1327,1.984870
1328,1.984810
1329,1.984760
1330,1.984600
1331,1.984600
1332,1.984550
1333,1.984430
1334,1.984490
1335,1.984510
1336,1.984390
1337,1.984450
1338,1.984300
1339,1.984200
1340,1.983990
1341,1.984050
1342,1.984010
1343,1.983930
1344,1.983970
1345,1.983970
1346,1.983800
1347,1.983760
1348,1.983690
1349,1.983590
1350,1.983570
1351,1.983530
1352,1.983460
1353,1.983490
1354,1.983480
1355,1.983320
1356,1.983320
1357,1.983150
1358,1.983070
1359,1.983130
1360,1.983070
1361,1.982980
1362,1.983060
1363,1.982880
1364,1.982860
1365,1.982830
1366,1.982900
1367,1.982860
1368,1.982920
1369,1.982860
1370,1.982830
1371,1.982830
1372,1.982830
1373,1.982730
1374,1.982650
1375,1.982620
1376,1.982620
1377,1.982390
1378,1.982410
1379,1.982440
1380,1.982270
1381,1.982290
1382,1.982230
1383,1.982160
1384,1.982080
1385,1.982060
1386,1.982120
1387,1.982060
1388,1.981950
1389,1.982010
1390,1.981910
1391,1.981910
1392,1.981780
1393,1.981660
1394,1.981600
1395,1.981640
1396,1.981700
1397,1.981680
1398,1.981450
1399,1.981620
1400,1.981450
1401,1.981300
1402,1.981340
1403,1.981240
1404,1.981360
1405,1.981220
1406,1.981220
1407,1.981130
1408,1.981050
1409,1.981050
1410,1.980940
1411,1.980990
1412,1.980880
1413,1.980840
1414,1.980840
1415,1.980860
1416,1.980800
1417,1.980730
1418,1.980570
1419,1.980650
1420,1.980670
1421,1.980570
1422,1.980500
1423,1.980570
1424,1.980330
1425,1.980400
1426,1.980230
1427,1.980360
1428,1.980230
1429,1.980230
1430,1.980080
1431,1.980060
1432,1.979940
1433,1.980040
1434,1.979850
1435,1.979830
1436,1.979940
1437,1.979790
1438,1.979810
1439,1.979660
1440,1.979640
1441,1.979560
1442,1.979430
1443,1.979410
1444,1.979390
1445,1.979470
1446,1.979470
1447,1.979390
1448,1.979370
1449,1.979260
1450,1.979180
1451,1.979080
1452,1.979180
1453,1.979120
1454,1.979010
1455,1.979100
1456,1.978950
1457,1.978840
1458,1.978890
1459,1.978760
1460,1.978780
1461,1.978780
1462,1.978660
1463,1.978610
1464,1.978550
1465,1.978570
1466,1.978490
1467,1.978380
1468,1.978340
1469,1.978340
1470,1.978280
1471,1.978320
1472,1.978240
1473,1.978090
1474,1.978210
1475,1.978000
1476,1.977980
1477,1.977980
1478,1.977860
1479,1.977710
1480,1.977790
1481,1.977750
1482,1.977650
1483,1.977590
1484,1.977460
1485,1.977480
1486,1.977440
1487,1.977560
1488,1.977270
1489,1.977160
1490,1.977370
1491,1.977190
1492,1.977140
1493,1.977060
1494,1.977080
1495,1.977040
1496,1.977040
1497,1.976870
1498,1.976830
1499,1.976870
1500,1.976930
1501,1.976770
1502,1.976470
1503,1.976740
1504,1.976740
1505,1.976580
1506,1.976530
1507,1.976600
1508,1.976490
1509,1.976410
1510,1.976390
1511,1.976300
1512,1.976330
1513,1.976280
1514,1.976200
1515,1.976260
1516,1.976070
1517,1.976120
1518,1.976140
1519,1.976010
1520,1.975930
1521,1.976030
1522,1.975900
1523,1.975930
1524,1.975700
1525,1.975780
1526,1.975860
1527,1.975670
1528,1.975690
1529,1.975610
1530,1.975400
1531,1.975510
1532,1.975480
1533,1.975400
1534,1.975400
1535,1.975360
1536,1.975250
1537,1.975300
1538,1.975270
1539,1.975150
1540,1.975040
1541,1.975210
1542,1.975150
1543,1.974960
1544,1.974900
1545,1.974920
1546,1.974730
1547,1.974790
1548,1.974770
1549,1.974770
1550,1.974500
1551,1.974690
1552,1.974620
1553,1.974540
1554,1.974500
1555,1.974460
1556,1.974440
1557,1.974520
1558,1.974460
1559,1.974310
1560,1.974410
1561,1.974230
1562,1.974350
1563,1.974160
1564,1.974180
1565,1.974220
1566,1.974140
1567,1.974140
1568,1.974040
1569,1.974020
1570,1.974010
1571,1.973890
1572,1.973930
1573,1.974040
1574,1.973890
1575,1.973850
1576,1.973800
1577,1.973850
1578,1.973660
1579,1.973720
1580,1.973660
1581,1.973780
1582,1.973720
1583,1.973570
1584,1.973550
1585,1.973570
1586,1.973550
1587,1.973510
1588,1.973370
1589,1.973360
1590,1.973390
1591,1.973260
1592,1.973430
1593,1.973360
1594,1.973390
1595,1.973220
1596,1.973200
1597,1.973110
1598,1.973220
1599,1.973180
1600,1.973090
1601,1.973010
1602,1.972880
1603,1.972990
1604,1.972820
1605,1.972920
1606,1.972920
1607,1.972780
1608,1.972690
1609,1.972740
1610,1.972820
1611,1.972650
1612,1.972740
1613,1.972500
1614,1.972530
1615,1.972610
1616,1.972530
1617,1.972570
1618,1.972520
1619,1.972500
1620,1.972440
1621,1.972530
1622,1.972420
1623,1.972520
1624,1.972440
1625,1.972340
1626,1.972550
1627,1.972420
1628,1.972480
1629,1.972480
1630,1.972440
1631,1.972340
1632,1.972250
1633,1.972210
1634,1.972170
1635,1.972080
1636,1.972150
1637,1.972150
1638,1.972060
1639,1.972150
1640,1.972100
1641,1.972100
1642,1.972230
1643,1.971900
1644,1.972020
1645,1.972020
1646,1.971750
1647,1.971790
1648,1.971920
1649,1.971810
1650,1.971750
1651,1.971940
1652,1.971810
1653,1.971790
1654,1.971850
1655,1.971750
1656,1.971730
1657,1.971620
1658,1.971690
1659,1.971730
1660,1.971540
1661,1.971690
1662,1.971680
1663,1.971730
1664,1.971640
1665,1.971520
1666,1.971560
1667,1.971580
1668,1.971580
1669,1.971500
1670,1.971560
1671,1.971560
1672,1.971580
1673,1.971470
1674,1.971450
1675,1.971580
1676,1.971580
1677,1.971520
1678,1.971600
1679,1.971560
1680,1.971390
1681,1.971410
1682,1.971390
1683,1.971290
1684,1.971410
1685,1.971390
1686,1.971350
1687,1.971220
1688,1.971390
1689,1.971450
1690,1.971370
1691,1.971200
1692,1.971330
1693,1.971290
1694,1.971350
1695,1.971240
1696,1.971240
1697,1.971120
1698,1.971060
1699,1.971160
1700,1.971050
1701,1.971100
1702,1.971010
1703,1.970970
1704,1.970950
1705,1.971030
1706,1.970850
1707,1.970870
1708,1.970950
1709,1.970870
1710,1.970930
1711,1.970800
1712,1.970740
1713,1.970820
1714,1.970840
1715,1.970780
1716,1.970680
1717,1.970820
1718,1.970640
1719,1.970660
1720,1.970590
1721,1.970610
1722,1.970720
1723,1.970640
1724,1.970640
1725,1.970660
1726,1.970470
1727,1.970630
1728,1.970530
1729,1.970490
1730,1.970490
1731,1.970490
1732,1.970450
1733,1.970400
1734,1.970470
1735,1.970260
1736,1.970400
1737,1.970380
1738,1.970320
1739,1.970340
1740,1.970280
1741,1.970210
1742,1.970360
1743,1.970430
1744,1.970360
1745,1.970280
1746,1.970300
1747,1.970170
1748,1.970340
1749,1.970400
1750,1.970420
1751,1.970420
1752,1.970360
1753,1.970420
1754,1.970360
1755,1.970220
1756,1.970360
1757,1.970450
1758,1.970340
1759,1.970260
1760,1.970340
1761,1.970340
1762,1.970420
1763,1.970400
1764,1.970420
1765,1.970380
1766,1.970400
1767,1.970450
1768,1.970400
1769,1.970320
1770,1.970360
1771,1.970420
1772,1.970510
1773,1.970450
1774,1.970610
1775,1.970470
1776,1.970640
1777,1.970640
1778,1.970740
1779,1.970850
1780,1.970930
1781,1.970970
1782,1.971080
1783,1.971290
1784,1.971240
1785,1.971430
1786,1.971680
1787,1.971710
1788,1.971850
1789,1.971940
1790,1.972060
1791,1.972400
1792,1.972320
1793,1.972380
1794,1.972670
1795,1.972690
1796,1.972760
1797,1.972990
1798,1.973050
1799,1.973010
1800,1.973280
1801,1.973360
1802,1.973450
1803,1.973580
1804,1.973830
1805,1.974020
1806,1.973890
1807,1.974270
1808,1.974160
1809,1.974410
1810,1.974580
1811,1.974790
1812,1.974850
1813,1.975040
1814,1.975090
1815,1.975250
1816,1.975400
1817,1.975480
1818,1.975650
1819,1.975860
1820,1.975910
1821,1.975990
1822,1.976180
1823,1.976390
1824,1.976490
1825,1.976680
1826,1.976740
1827,1.976810
1828,1.976910
1829,1.977020
1830,1.977170
1831,1.977350
1832,1.977500
1833,1.977650
1834,1.977630
1835,1.977790
1836,1.977920
1837,1.978010
1838,1.978090
1839,1.978280
1840,1.978360
1841,1.978550
1842,1.978650
1843,1.978680
1844,1.978840
1845,1.978890
1846,1.979030
1847,1.979120
1848,1.979310
1849,1.979540
1850,1.979560
1851,1.979700
1852,1.979700
1853,1.979910
1854,1.980000
1855,1.980150
1856,1.980170
1857,1.980270
1858,1.980310
1859,1.980540
1860,1.980570
1861,1.980710
1862,1.980900
1863,1.980820
1864,1.980920
1865,1.980880
1866,1.981010
1867,1.980960
1868,1.981130
1869,1.980970
1870,1.980970
1871,1.980920
1872,1.981090
1873,1.981170
1874,1.980970
1875,1.980990
1876,1.980940
1877,1.980970
1878,1.980900
1879,1.980860
1880,1.980780
1881,1.980780
1882,1.980570
1883,1.980550
1884,1.980570
1885,1.980650
1886,1.980480
1887,1.980360
1888,1.980440
1889,1.980290
1890,1.980210
1891,1.980170
1892,1.981590
1893,1.981550
1894,1.981590
1895,1.981490
1896,1.981430
1897,1.981450
1898,1.981450
1899,1.981280
1900,1.981280
1901,1.981260
1902,1.981220
1903,1.981240
1904,1.981180
1905,1.980970
1906,1.981010
1907,1.980970
1908,1.980800
1909,1.980670
1910,1.980800
1911,1.980710
1912,1.980610
1913,1.980650
1914,1.980550
1915,1.980520
1916,1.980380
1917,1.980440
1918,1.980420
1919,1.980380
1920,1.980250
1921,1.980210
1922,1.980250
1923,1.980020
1924,1.980000
1925,1.980060
1926,1.980060
1927,1.980060
1928,1.979830
1929,1.979870
1930,1.979890
1931,1.979850
1932,1.979730
1933,1.979810
1934,1.979620
1935,1.979700
1936,1.979540
1937,1.979520
1938,1.979540
1939,1.979450
1940,1.979500
1941,1.979410
1942,1.979470
1943,1.979370
1944,1.979200
1945,1.979430
1946,1.979220
1947,1.979160
1948,1.979100
1949,1.978970
1950,1.979050
1951,1.979070
1952,1.978820
1953,1.978950
1954,1.978840
1955,1.978680
1956,1.978760
1957,1.978660
1958,1.978760
1959,1.978680
1960,1.978700
1961,1.978510
1962,1.978420
1963,1.978450
1964,1.978430
1965,1.978550
1966,1.978380
1967,1.978360
1968,1.978380
1969,1.978170
1970,1.978260
1971,1.978090
1972,1.978090
1973,1.977980
1974,1.977980
1975,1.977860
1976,1.977960
1977,1.977730
1978,1.977690
1979,1.977590
1980,1.977560
1981,1.977650
1982,1.977440
1983,1.977440
1984,1.977480
1985,1.977370
1986,1.977270
1987,1.977250
1988,1.977140
1989,1.977060
1990,1.976960
1991,1.977040
1992,1.977020
1993,1.976810
1994,1.976960
1995,1.976910
1996,1.976720
1997,1.976660
1998,1.976600
1999,1.976600
2000,1.976810
2001,1.976450
2002,1.976470
2003,1.976370
2004,1.976300
2005,1.976280
2006,1.976280
2007,1.976220
2008,1.976320
2009,1.976090
2010,1.976030
2011,1.976090
2012,1.976160
2013,1.975970
2014,1.975930
2015,1.976010
2016,1.975740
2017,1.975820
2018,1.975780
2019,1.975700
2020,1.975690
2021,1.975630
2022,1.975530
2023,1.975490
2024,1.975610
2025,1.975480
2026,1.975420
2027,1.975420
2028,1.975400
2029,1.975440
2030,1.975360
2031,1.975340
2032,1.975150
2033,1.975130
2034,1.975210
2035,1.975130
2036,1.975020
2037,1.975060
2038,1.975070
2039,1.975130
2040,1.975020
2041,1.974850
2042,1.974750
2043,1.975110
2044,1.974850
2045,1.974860
2046,1.974730
2047,1.974850
2048,1.974880
2049,1.974670
2050,1.974730
2051,1.974690
2052,1.974650
2053,1.974640
2054,1.974480
2055,1.974500
2056,1.974520
2057,1.974560
2058,1.974440
2059,1.974350
2060,1.974330
2061,1.974270
2062,1.974350
2063,1.974160
2064,1.974160
2065,1.974100
2066,1.974020
2067,1.974060
2068,1.974020
2069,1.973970
2070,1.974020
2071,1.973910
2072,1.973950
2073,1.973870
2074,1.973830
2075,1.973700
2076,1.973740
2077,1.973620
2078,1.973740
2079,1.973780
2080,1.973720
2081,1.973580
2082,1.973570
2083,1.973490
2084,1.973570
2085,1.973450
2086,1.973430
2087,1.973430
2088,1.973390
2089,1.973280
2090,1.973340
2091,1.973240
2092,1.973220
2093,1.973110
2094,1.973160
2095,1.973030
2096,1.972990
2097,1.973070
2098,1.972950
2099,1.972860
2100,1.972900
2101,1.972840
2102,1.972840
2103,1.972690
2104,1.972760
2105,1.972610
2106,1.972650
2107,1.972500
2108,1.972440
2109,1.972420
2110,1.972500
2111,1.972460
2112,1.972210
2113,1.972340
2114,1.972230
2115,1.972380
2116,1.972290
2117,1.972320
2118,1.972110
2119,1.972210
2120,1.972190
2121,1.972230
2122,1.972040
2123,1.972150
2124,1.972020
2125,1.972020
2126,1.972080
2127,1.972000
2128,1.972020
2129,1.971980
2130,1.971890
2131,1.971900
2132,1.971810
2133,1.971770
2134,1.971850
2135,1.971870
2136,1.971830
2137,1.971690
2138,1.971900
2139,1.971750
2140,1.971890
2141,1.971710
2142,1.971730
2143,1.971790
2144,1.971770
2145,1.971770
2146,1.971750
2147,1.971600
2148,1.971770
2149,1.971500
2150,1.971790
2151,1.971540
2152,1.971470
2153,1.971580
2154,1.971580
2155,1.971470
2156,1.971290
2157,1.971330
2158,1.971350
2159,1.971180
2160,1.971350
2161,1.971180
2162,1.971100
2163,1.971140
2164,1.971200
2165,1.971050
2166,1.971010
2167,1.971030
2168,1.971160
2169,1.970990
2170,1.970990
2171,1.971010
2172,1.970950
2173,1.970800
2174,1.970800
2175,1.970970
2176,1.970850
2177,1.970820
2178,1.970640
2179,1.970740
2180,1.970630
2181,1.970630
2182,1.970570
2183,1.970550
2184,1.970470
2185,1.970280
2186,1.970340
2187,1.970420
2188,1.970300
2189,1.970260
2190,1.970210
2191,1.970130
2192,1.970210
2193,1.969940
2194,1.969940
2195,1.969960
2196,1.970110
2197,1.969900
2198,1.969840
2199,1.969770
2200,1.969770
2201,1.969670
2202,1.969750
2203,1.969650
2204,1.969590
2205,1.969670
2206,1.969650
2207,1.969590
2208,1.969560
2209,1.969590
2210,1.969590
2211,1.969560
2212,1.969400
2213,1.969420
2214,1.969440
2215,1.969270
2216,1.969380
2217,1.969330
2218,1.969350
2219,1.969250
2220,1.969400
2221,1.969170
2222,1.969210
2223,1.969210
2224,1.969120
2225,1.969210
2226,1.969100
2227,1.969020
2228,1.968980
2229,1.969020
2230,1.969020
2231,1.968910
2232,1.969020
2233,1.968850
2234,1.968700
2235,1.968810
2236,1.968830
2237,1.968910
2238,1.968640
2239,1.968540
2240,1.968640
2241,1.968560
2242,1.968490
2243,1.968560
2244,1.968600
2245,1.968350
2246,1.968300
2247,1.968220
2248,1.968390
2249,1.968300
2250,1.968160
2251,1.967950
2252,1.968110
2253,1.968050
2254,1.967950
2255,1.967950
2256,1.967970
2257,1.968010
2258,1.967820
2259,1.967840
2260,1.967630
2261,1.967800
2262,1.967760
2263,1.967780
2264,1.967740
2265,1.967740
2266,1.967570
2267,1.967590
2268,1.967630
2269,1.967340
2270,1.967360
2271,1.967440
2272,1.967320
2273,1.967320
2274,1.967380
2275,1.967230
2276,1.967280
2277,1.967250
2278,1.967170
2279,1.967050
2280,1.967040
2281,1.967000
2282,1.966960
2283,1.966980
2284,1.966920
2285,1.966790
2286,1.966860
2287,1.966730
2288,1.966790
2289,1.966770
2290,1.966620
2291,1.966560
2292,1.966620
2293,1.966560
2294,1.966630
2295,1.966480
2296,1.966420
2297,1.966230
2298,1.966420
2299,1.966330
2300,1.966210
2301,1.966250
2302,1.966270
2303,1.966200
2304,1.966180
2305,1.966020
2306,1.966060
2307,1.966040
2308,1.965970
2309,1.965990
2310,1.966040
2311,1.966020
2312,1.965910
2313,1.965810
2314,1.965910
2315,1.965790
2316,1.965890
2317,1.965740
2318,1.965740
2319,1.965600
2320,1.965680
2321,1.965580
2322,1.965570
2323,1.965510
2324,1.965490
2325,1.965260
2326,1.965300
2327,1.965600
2328,1.965470
2329,1.965370
2330,1.965450
2331,1.965360
2332,1.965390
2333,1.965280
2334,1.965200
2335,1.965130
2336,1.965050
2337,1.965010
2338,1.964880
2339,1.964860
2340,1.964800
2341,1.964670
2342,1.964690
2343,1.964740
2344,1.964440
2345,1.964590
2346,1.964520
2347,1.964530
2348,1.964520
2349,1.964340
2350,1.964310
2351,1.964230
2352,1.964170
2353,1.964290
2354,1.963980
2355,1.964060
2356,1.964150
2357,1.964060
2358,1.963960
2359,1.963790
2360,1.963920
2361,1.963770
2362,1.963660
2363,1.963690
2364,1.963690
2365,1.963600
2366,1.963670
2367,1.963620
2368,1.963580
2369,1.963620
2370,1.963670
2371,1.963560
2372,1.963540
2373,1.963450
2374,1.963500
2375,1.963270
2376,1.963330
2377,1.963220
2378,1.963330
2379,1.963180
2380,1.962910
2381,1.962380
2382,1.962200
2383,1.962050
2384,1.961920
2385,1.961750
2386,1.961730
2387,1.961460
2388,1.961420
2389,1.961400
2390,1.961360
2391,1.961330
2392,1.961270
2393,1.961250
2394,1.961230
2395,1.961350
2396,1.961310
2397,1.961330
2398,1.961270
2399,1.961270
2400,1.961290
2401,1.961420
2402,1.961190
2403,1.961400
2404,1.961400
2405,1.961500
2406,1.961330
2407,1.961380
2408,1.961330
2409,1.961290
2410,1.961330
2411,1.961270
2412,1.961310
2413,1.961350
2414,1.961250
2415,1.961380
2416,1.961270
2417,1.961250
2418,1.961190
2419,1.961210
2420,1.961310
2421,1.961190
2422,1.961290
2423,1.961190
2424,1.961330
2425,1.961040
2426,1.961060
2427,1.961120
2428,1.961020
2429,1.960960
2430,1.960980
2431,1.960940
2432,1.960810
2433,1.960850
2434,1.960700
2435,1.960720
2436,1.960770
2437,1.960660
2438,1.960600
2439,1.960430
2440,1.960680
2441,1.960720
2442,1.960300
2443,1.960910
2444,1.960810
2445,1.960680
2446,1.960790
2447,1.960810
2448,1.960850
2449,1.960830
2450,1.960700
2451,1.960790
2452,1.960730
2453,1.960770
2454,1.960890
2455,1.960720
2456,1.960660
2457,1.960870
2458,1.960850
2459,1.960980
2460,1.961020
2461,1.961150
2462,1.961310
2463,1.961480
2464,1.961500
2465,1.961400
2466,1.961610
2467,1.961770
2468,1.961840
2469,1.961960
2470,1.962030
2471,1.962110
2472,1.962300
2473,1.962260
2474,1.962430
2475,1.962510
2476,1.962700
2477,1.962870
2478,1.963030
2479,1.962910
2480,1.963200
2481,1.963260
2482,1.963350
2483,1.963310
2484,1.963540
2485,1.963690
2486,1.963690
2487,1.963830
2488,1.963730
2489,1.963710
2490,1.963810
2491,1.963750
2492,1.963790
2493,1.963770
2494,1.963790
2495,1.963730
2496,1.963790
2497,1.963640
2498,1.963580
2499,1.963810
2500,1.963670
2501,1.963480
2502,1.963390
2503,1.963290
2504,1.963500
2505,1.963450
2506,1.963370
2507,1.963370
2508,1.963260
2509,1.963140
2510,1.963080
2511,1.963010
2512,1.963010
2513,1.963010
2514,1.962950
2515,1.962870
2516,1.963050
2517,1.962840
2518,1.962890
2519,1.962660
2520,1.962470
2521,1.962590
2522,1.962450
2523,1.962360
2524,1.962360
2525,1.962260
2526,1.962280
2527,1.962050
2528,1.962130
2529,1.961960
2530,1.961880
2531,1.962030
2532,1.961840
2533,1.961710
2534,1.961800
2535,1.961560
2536,1.961590
2537,1.961630
2538,1.961480
2539,1.961420
2540,1.961460
2541,1.961310
2542,1.961230
2543,1.961080
2544,1.961150
2545,1.961100
2546,1.961080
2547,1.960870
2548,1.960910
2549,1.960810
2550,1.960730
2551,1.960770
2552,1.960700
2553,1.960600
2554,1.960600
2555,1.960580
2556,1.960660
2557,1.960450
2558,1.960520
2559,1.960370
2560,1.960300
2561,1.960330
2562,1.960280
2563,1.960200
2564,1.960260
2565,1.960090
2566,1.960050
2567,1.960050
2568,1.959930
2569,1.959910
2570,1.959990
2571,1.959820
2572,1.959840
2573,1.959740
2574,1.959630
2575,1.959670
2576,1.959590
2577,1.959460
2578,1.959440
2579,1.959300
2580,1.959190
2581,1.959230
2582,1.959210
2583,1.959170
2584,1.959050
2585,1.959050
2586,1.959070
2587,1.958960
2588,1.958900
2589,1.958750
2590,1.958690
2591,1.958670
2592,1.958540
2593,1.958460
2594,1.958540
2595,1.958310
2596,1.958310
2597,1.958270
2598,1.958180
2599,1.958180
2600,1.958250
2601,1.958140
2602,1.958060
2603,1.957970
2604,1.957850
2605,1.957930
2606,1.957740
2607,1.957790
2608,1.957660
2609,1.957620
2610,1.957760
2611,1.957600
2612,1.957560
2613,1.957530
2614,1.957410
2615,1.957320
2616,1.957280
2617,1.957200
2618,1.957240
2619,1.957090
2620,1.957070
2621,1.956920
2622,1.956760
2623,1.956760
2624,1.956800
2625,1.956760
2626,1.956650
2627,1.956670
2628,1.956500
2629,1.956530
2630,1.956300
2631,1.956500
2632,1.956320
2633,1.956340
2634,1.956380
2635,1.956250
2636,1.956190
2637,1.956190
2638,1.956130
2639,1.956020
2640,1.955980
2641,1.955850
2642,1.955770
2643,1.955830
2644,1.955730
2645,1.955540
2646,1.955730
2647,1.955620
2648,1.955430
2649,1.955460
2650,1.955450
2651,1.955450
2652,1.955290
2653,1.955330
2654,1.955140
2655,1.955220
2656,1.955080
2657,1.955080
2658,1.954890
2659,1.954870
2660,1.954830
2661,1.954800
2662,1.954760
2663,1.954640
2664,1.954610
2665,1.954620
2666,1.954510
2667,1.954510
2668,1.954400
2669,1.954240
2670,1.954190
2671,1.954190
2672,1.954170
2673,1.954030
2674,1.953960
2675,1.954110
2676,1.953880
2677,1.953900
2678,1.953800
2679,1.953750
2680,1.953670
2681,1.953500
2682,1.953570
2683,1.953380
2684,1.953420
2685,1.953480
2686,1.953400
2687,1.953310
2688,1.953250
2689,1.953210
2690,1.953150
2691,1.953040
2692,1.953020
2693,1.952960
2694,1.952910
2695,1.952960
2696,1.952830
2697,1.952660
2698,1.952580
2699,1.952490
2700,1.952490
2701,1.952430
2702,1.952370
2703,1.952330
2704,1.952500
2705,1.952390
2706,1.952120
2707,1.952140
2708,1.952200
2709,1.952100
2710,1.952080
2711,1.951890
2712,1.951660
2713,1.951840
2714,1.951800
2715,1.951760
2716,1.951650
2717,1.951550
2718,1.951570
2719,1.951700
2720,1.951470
2721,1.951340
2722,1.951420
2723,1.951380
2724,1.951360
2725,1.951240
2726,1.951170
2727,1.951170
2728,1.951030
2729,1.950940
2730,1.950860
2731,1.950940
2732,1.950690
2733,1.950730
2734,1.950690
2735,1.950670
2736,1.950690
2737,1.950610
2738,1.950400
2739,1.950480
2740,1.950390
2741,1.950330
2742,1.950290
2743,1.950140
2744,1.950100
2745,1.950140
2746,1.949930
2747,1.949870
2748,1.949930
2749,1.949700
2750,1.949720
2751,1.949600
2752,1.949680
2753,1.949560
2754,1.949510
2755,1.949340
2756,1.949390
2757,1.949450
2758,1.949320
2759,1.949180
2760,1.949200
2761,1.949070
2762,1.948920
2763,1.948950
2764,1.948880
2765,1.948950
2766,1.948820
2767,1.948760
2768,1.948710
2769,1.948690
2770,1.948530
2771,1.948570
2772,1.948570
2773,1.948590
2774,1.948420
2775,1.948340
2776,1.948290
2777,1.948340
2778,1.948060
2779,1.948080
2780,1.948080
2781,1.948040
2782,1.947880
2783,1.947870
2784,1.947790
2785,1.947600
2786,1.947710
2787,1.947640
2788,1.947600
2789,1.947500
2790,1.947430
2791,1.947290
2792,1.947250
2793,1.947180
2794,1.947220
2795,1.947120
2796,1.947100
2797,1.946890
2798,1.946890
2799,1.946870
2800,1.946930
2801,1.946910
2802,1.946700
2803,1.946660
2804,1.946700
2805,1.946800
2806,1.946890
2807,1.946800
2808,1.947010
2809,1.946990
2810,1.946910
2811,1.947200
2812,1.947270
2813,1.947270
2814,1.947500
2815,1.947560
2816,1.947670
2817,1.947670
2818,1.947790
2819,1.947960
2820,1.948150
2821,1.948130
2822,1.948170
2823,1.948190
2824,1.948380
2825,1.948440
2826,1.948610
2827,1.948710
2828,1.948690
2829,1.948690
2830,1.948820
2831,1.948800
2832,1.948740
2833,1.948650
2834,1.948650
2835,1.948500
2836,1.948500
2837,1.948460
2838,1.948460
2839,1.948230
2840,1.948250
2841,1.948080
2842,1.948270
2843,1.947980
2844,1.948210
2845,1.948130
2846,1.948020
2847,1.947830
2848,1.947870
2849,1.947660
2850,1.947690
2851,1.947640
2852,1.947520
2853,1.947560
2854,1.947540
2855,1.947390
2856,1.947270
2857,1.947270
2858,1.947220
2859,1.947080
2860,1.947040
2861,1.946950
2862,1.946930
2863,1.946850
2864,1.946700
2865,1.946720
2866,1.946780
2867,1.946570
2868,1.946640
2869,1.946470
2870,1.946360
2871,1.946300
2872,1.946200
2873,1.946150
2874,1.946170
2875,1.946130
2876,1.946070
2877,1.945880
2878,1.945840
2879,1.945820
2880,1.945670
2881,1.945730
2882,1.945670
2883,1.945590
2884,1.945590
2885,1.945380
2886,1.945460
2887,1.945360
2888,1.945310
2889,1.945080
2890,1.945100
2891,1.945020
2892,1.945040
2893,1.944960
2894,1.944680
2895,1.944790
2896,1.944750
2897,1.944710
2898,1.944620
2899,1.944470
2900,1.944430
2901,1.944330
2902,1.944260
2903,1.944180
2904,1.944070
2905,1.944260
2906,1.944220
2907,1.944200
2908,1.943950
2909,1.943970
2910,1.943970
2911,1.943860
2912,1.943700
2913,1.943660
2914,1.943590
2915,1.943650
2916,1.943650
2917,1.943550
2918,1.943400
2919,1.943360
2920,1.943340
2921,1.943230
2922,1.943260
2923,1.943230
2924,1.943110
2925,1.943020
2926,1.943000
2927,1.943000
2928,1.942900
2929,1.942820
2930,1.942820
2931,1.942670
2932,1.942590
2933,1.942590
2934,1.942580
2935,1.942350
2936,1.942330
2937,1.942230
2938,1.942210
2939,1.942160
2940,1.942000
2941,1.941930
2942,1.942000
2943,1.941870
2944,1.941660
2945,1.941810
2946,1.941740
2947,1.941720
2948,1.941660
2949,1.941640
2950,1.941660
2951,1.941600
2952,1.941680
2953,1.941660
2954,1.941750
2955,1.941850
2956,1.941980
2957,1.941980
2958,1.941890
2959,1.942120
2960,1.942020
2961,1.942230
2962,1.942390
2963,1.942500
2964,1.942630
2965,1.942590
2966,1.942810
2967,1.942820
2968,1.942940
2969,1.943020
2970,1.943150
2971,1.943050
2972,1.943230
2973,1.943420
2974,1.943570
2975,1.943550
2976,1.943680
2977,1.943700
2978,1.943860
2979,1.943870
2980,1.944080
2981,1.944010
2982,1.944290
2983,1.944120
2984,1.944390
2985,1.944350
2986,1.944660
2987,1.944750
2988,1.944620
2989,1.944700
2990,1.944890
2991,1.945020
2992,1.945080
2993,1.945150
2994,1.945250
2995,1.945420
2996,1.945480
2997,1.945400
2998,1.945440
2999,1.945520
3000,1.945780
3001,1.945780
3002,1.945780
3003,1.945800
3004,1.945970
3005,1.945990
3006,1.946260
3007,1.946380
3008,1.946410
3009,1.946490
3010,1.946550
3011,1.946760
3012,1.946740
3013,1.946850
3014,1.947080
3015,1.946910
3016,1.947040
3017,1.947020
3018,1.947060
3019,1.947040
3020,1.946950
3021,1.946930
3022,1.946890
3023,1.946890
3024,1.946810
3025,1.946810
3026,1.946720
3027,1.946590
3028,1.946410
3029,1.946340
3030,1.946390
3031,1.946110
3032,1.946050
3033,1.946010
3034,1.945690
3035,1.945920
3036,1.945820
3037,1.945670
3038,1.945590
3039,1.945570
3040,1.945500
3041,1.945340
3042,1.945330
3043,1.945250
3044,1.945250
3045,1.945120
3046,1.945060
3047,1.944940
3048,1.944790
3049,1.944710
3050,1.944910
3051,1.944730
3052,1.944660
3053,1.944560
3054,1.944540
3055,1.944370
3056,1.944280
3057,1.944240
3058,1.944200
3059,1.943890
3060,1.943930
3061,1.943990
3062,1.943840
3063,1.943760
3064,1.943740
3065,1.943760
3066,1.943660
3067,1.943660
3068,1.943660
3069,1.943610
3070,1.943490
3071,1.943440
3072,1.943340
3073,1.943400
3074,1.943170
3075,1.943210
3076,1.943090
3077,1.943070
3078,1.942940
3079,1.943050
3080,1.942840
3081,1.942670
3082,1.942750
3083,1.942590
3084,1.942610
3085,1.942440
3086,1.942500
3087,1.942420
3088,1.942330
3089,1.942350
3090,1.942290
3091,1.942350
3092,1.942310
3093,1.942310
3094,1.942060
3095,1.941950
3096,1.942000
3097,1.941850
3098,1.942000
3099,1.941890
3100,1.941890
3101,1.941720
3102,1.941740
3103,1.941600
3104,1.941640
3105,1.941470
3106,1.941600
3107,1.941300
3108,1.941470
3109,1.941220
3110,1.941260
3111,1.941110
3112,1.941140
3113,1.940990
3114,1.940970
3115,1.941070
3116,1.940910
3117,1.940860
3118,1.940780
3119,1.940740
3120,1.940670
3121,1.940460
3122,1.940570
3123,1.940480
3124,1.940550
3125,1.940460
3126,1.940340
3127,1.940210
3128,1.940110
3129,1.940060
3130,1.939960
3131,1.940000
3132,1.939960
3133,1.939900
3134,1.939860
3135,1.939640
3136,1.939650
3137,1.939600
3138,1.939520
3139,1.939440
3140,1.939330
3141,1.939330
3142,1.939330
3143,1.939100
3144,1.939180
3145,1.939160
3146,1.939100
3147,1.939010
3148,1.939120
3149,1.938870
3150,1.938950
3151,1.938850
3152,1.938780
3153,1.938810
3154,1.938740
3155,1.938590
3156,1.938640
3157,1.938570
3158,1.938640
3159,1.938600
3160,1.938640
3161,1.938470
3162,1.938600
3163,1.938530
3164,1.938530
3165,1.938430
3166,1.938430
3167,1.938450
3168,1.938530
3169,1.938550
3170,1.938550
3171,1.938410
3172,1.938470
3173,1.938570
3174,1.938470
3175,1.938320
3176,1.938390
3177,1.938280
3178,1.938280
3179,1.938380
3180,1.938240
3181,1.938360
3182,1.938180
3183,1.938380
3184,1.938260
3185,1.938200
3186,1.938200
3187,1.938050
3188,1.938180
3189,1.938010
3190,1.938050
3191,1.938070
3192,1.938110
3193,1.937920
3194,1.938090
3195,1.937960
3196,1.937920
3197,1.938030
3198,1.937920
3199,1.937990
3200,1.937970
3201,1.937730
3202,1.937990
3203,1.937940
3204,1.937860
3205,1.937900
3206,1.937840
3207,1.937840
3208,1.937750
3209,1.937860
3210,1.937780
3211,1.937780
3212,1.937690
3213,1.937760
3214,1.937820
3215,1.937800
3216,1.937760
3217,1.937780
3218,1.937710
3219,1.937710
3220,1.937730
3221,1.937670
3222,1.937650
3223,1.937630
3224,1.937540
3225,1.937630
3226,1.937570
3227,1.937550
3228,1.937520
3229,1.937440
3230,1.937460
3231,1.937550
3232,1.937230
3233,1.937380
3234,1.937380
3235,1.937500
3236,1.937230
3237,1.937290
3238,1.937190
3239,1.937190
3240,1.937110
3241,1.936960
3242,1.936900
3243,1.936960
3244,1.936920
3245,1.936890
3246,1.936770
3247,1.936700
3248,1.936620
3249,1.936710
3250,1.936710
3251,1.936580
3252,1.936580
3253,1.936470
3254,1.936290
3255,1.936270
3256,1.936310
3257,1.936330
3258,1.936310
3259,1.936270
3260,1.936330
3261,1.936200
3262,1.936160
3263,1.936050
3264,1.936120
3265,1.936030
3266,1.935950
3267,1.936030
3268,1.935970
3269,1.936100
3270,1.936010
3271,1.935910
3272,1.935970
3273,1.935890
3274,1.935870
3275,1.935760
3276,1.935800
3277,1.935780
3278,1.935800
3279,1.935780
3280,1.935740
3281,1.935630
3282,1.935610
3283,1.935590
3284,1.935550
3285,1.935590
3286,1.935490
3287,1.935470
3288,1.935380
3289,1.935360
3290,1.935400
3291,1.935320
3292,1.935220
3293,1.935090
3294,1.935000
3295,1.935000
3296,1.934900
3297,1.934900
3298,1.934860
3299,1.934820
3300,1.934710
3301,1.934800
3302,1.934730
3303,1.934670
3304,1.934630
3305,1.934590
3306,1.934540
3307,1.934500
3308,1.934400
3309,1.934350
3310,1.934190
3311,1.934140
3312,1.934140
3313,1.934100
3314,1.933890
3315,1.934000
3316,1.933740
3317,1.933810
3318,1.933680
3319,1.933680
3320,1.933530
3321,1.933640
3322,1.933430
3323,1.933390
3324,1.933240
3325,1.933370
3326,1.933280
3327,1.933220
3328,1.932990
3329,1.933010
3330,1.932900
3331,1.932690
3332,1.932690
3333,1.932610
3334,1.932670
3335,1.932590
3336,1.932530
3337,1.932230
3338,1.932090
3339,1.932090
3340,1.932090
3341,1.932060
3342,1.932090
3343,1.931960
3344,1.931920
3345,1.931790
3346,1.931730
3347,1.931620
3348,1.931690
3349,1.931670
3350,1.931440
3351,1.931520
3352,1.931270
3353,1.931230
3354,1.931140
3355,1.931180
3356,1.931040
3357,1.930950
3358,1.930890
3359,1.930780
3360,1.930810
3361,1.930580
3362,1.930600
3363,1.930570
3364,1.930320
3365,1.930410
3366,1.930180
3367,1.930130
3368,1.930010
3369,1.929970
3370,1.929800
3371,1.929730
3372,1.929650
3373,1.929500
3374,1.929420
3375,1.929270
3376,1.929310
3377,1.929100
3378,1.929020
3379,1.928940
3380,1.928730
3381,1.928710
3382,1.928680
3383,1.928500
3384,1.928540
3385,1.928370
3386,1.928350
3387,1.928270
3388,1.928200
3389,1.928140
3390,1.927970
3391,1.927870
3392,1.927760
3393,1.927660
3394,1.927590
3395,1.927550
3396,1.927530
3397,1.927610
3398,1.927510
3399,1.927490
3400,1.927400
3401,1.927340
3402,1.927240
3403,1.927280
3404,1.927130
3405,1.927090
3406,1.927220
3407,1.927150
3408,1.926980
3409,1.926960
3410,1.927030
3411,1.926860
3412,1.926860
3413,1.926790
3414,1.926590
3415,1.926520
3416,1.926520
3417,1.926420
3418,1.926290
3419,1.926330
3420,1.926190
3421,1.926080
3422,1.925930
3423,1.925930
3424,1.925960
3425,1.925790
3426,1.925700
3427,1.925640
3428,1.925600
3429,1.925470
3430,1.925470
3431,1.925430
3432,1.925350
3433,1.925300
3434,1.925330
3435,1.925220
3436,1.925140
3437,1.925240
3438,1.925200
3439,1.925030
3440,1.924990
3441,1.924970
3442,1.924930
3443,1.924820
3444,1.924800
3445,1.924700
3446,1.924590
3447,1.924530
3448,1.924460
3449,1.924230
3450,1.924230
3451,1.924050
3452,1.924070
3453,1.923960
3454,1.924020
3455,1.923860
3456,1.923920
3457,1.923830
3458,1.923690
3459,1.923730
3460,1.923600
3461,1.923600
3462,1.923480
3463,1.923290
3464,1.923250
3465,1.923120
3466,1.923180
3467,1.922990
3468,1.923140
3469,1.922990
3470,1.922740
3471,1.922580
3472,1.922720
3473,1.922600
3474,1.922430
3475,1.922260
3476,1.922220
3477,1.922300
3478,1.922130
3479,1.922050
3480,1.921940
3481,1.921880
3482,1.921800
3483,1.921610
3484,1.921610
3485,1.921460
3486,1.921530
3487,1.921400
3488,1.921420
3489,1.921290
3490,1.921270
3491,1.921250
3492,1.921190
3493,1.920980
3494,1.921060
3495,1.920890
3496,1.920920
3497,1.920670
3498,1.920710
3499,1.920670
3500,1.920690
3501,1.920460
3502,1.920220
3503,1.920450
3504,1.920390
3505,1.920060
3506,1.920120
3507,1.919780
3508,1.919890
3509,1.919930
3510,1.919820
3511,1.919830
3512,1.919610
3513,1.919590
3514,1.919490
3515,1.919360
3516,1.919260
3517,1.919240
3518,1.919110
3519,1.918980
3520,1.918940
3521,1.918940
3522,1.918730
3523,1.918590
3524,1.918520
3525,1.917720
3526,1.917700
3527,1.917620
3528,1.917730
3529,1.917520
3530,1.917370
3531,1.917220
3532,1.917310
3533,1.917090
3534,1.916890
3535,1.916930
3536,1.916820
3537,1.916670
3538,1.916590
3539,1.916570
3540,1.916320
3541,1.916250
3542,1.916230
3543,1.916170
3544,1.916050
3545,1.915880
3546,1.915940
3547,1.915770
3548,1.915580
3549,1.915630
3550,1.915440
3551,1.915500
3552,1.915270
3553,1.915190
3554,1.915080
3555,1.915060
3556,1.915000
3557,1.914910
3558,1.914790
3559,1.914700
3560,1.914600
3561,1.914620
3562,1.914450
3563,1.914550
3564,1.914430
3565,1.914180
3566,1.914140
3567,1.914090
3568,1.914110
3569,1.914010
3570,1.913860
3571,1.913950
3572,1.913710
3573,1.913710
3574,1.913720
3575,1.913550
3576,1.913440
3577,1.913460
3578,1.913290
3579,1.913190
3580,1.913090
3581,1.913320
3582,1.912920
3583,1.912830
3584,1.912660
3585,1.912830
3586,1.912620
3587,1.912580
3588,1.912370
3589,1.912450
3590,1.912390
3591,1.912350
3592,1.912310
3593,1.912330
3594,1.912220
3595,1.912100
3596,1.912060
3597,1.912100
3598,1.912080
3599,1.911720
3600,1.911550
3601,1.911220
3602,1.910920
3603,1.910570
3604,1.910120
3605,1.909870
3606,1.909280
3607,1.908890
3608,1.908590
3609,1.908070
3610,1.907540
3611,1.907250
3612,1.906600
3613,1.906130
3614,1.905780
3615,1.905360
3616,1.904980
3617,1.904520
3618,1.904060
3619,1.903700
3620,1.903320
3621,1.902920
3622,1.902610
3623,1.902250
3624,1.901870
3625,1.901470
3626,1.900970
3627,1.900800
3628,1.900660
3629,1.900170
3630,1.899940
3631,1.899710
3632,1.899270
3633,1.899100
3634,1.898770
3635,1.898410
3636,1.898300
3637,1.898010
3638,1.897650
3639,1.897340
3640,1.897150
3641,1.896900
3642,1.896670
3643,1.896480
3644,1.896310
3645,1.896140
3646,1.895850
3647,1.895870
3648,1.895550
3649,1.895430
3650,1.895340
3651,1.895050
3652,1.894970
3653,1.894650
3654,1.894670
3655,1.894550
3656,1.894460
3657,1.894270
3658,1.894270
3659,1.894110
3660,1.894000
3661,1.893830
3662,1.893620
3663,1.893470
3664,1.893270
3665,1.893240
3666,1.893180
3667,1.892870
3668,1.892840
3669,1.892700
3670,1.892630
3671,1.892400
3672,1.892490
3673,1.892150
3674,1.892090
3675,1.891770
3676,1.891920
3677,1.891630
3678,1.891520
3679,1.891250
3680,1.891120
3681,1.890890
3682,1.890660
3683,1.890430
3684,1.890280
3685,1.890200
3686,1.890030
3687,1.889950
3688,1.889820
3689,1.889650
3690,1.889340
3691,1.889380
3692,1.889170
3693,1.889110
3694,1.888830
3695,1.888750
3696,1.888670
3697,1.888480
3698,1.888290
3699,1.888160
3700,1.888020
3701,1.887890
3702,1.887790
3703,1.887570
3704,1.887390
3705,1.887260
3706,1.887110
3707,1.886920
3708,1.886650
3709,1.886480
3710,1.886480
3711,1.886340
3712,1.886130
3713,1.886150
3714,1.885890
3715,1.885770
3716,1.885540
3717,1.885560
3718,1.885480
3719,1.885310
3720,1.885180
3721,1.885010
3722,1.885010
3723,1.884890
3724,1.884510
3725,1.884550
3726,1.884260
3727,1.884240
3728,1.883960
3729,1.883800
3730,1.883560
3731,1.883310
3732,1.883000
3733,1.882450
3734,1.882350
3735,1.881860
3736,1.881460
3737,1.881280
3738,1.880790
3739,1.880460
3740,1.879850
3741,1.879490
3742,1.879140
3743,1.878650
3744,1.878250
3745,1.877920
3746,1.877480
3747,1.877200
3748,1.876910
3749,1.876490
3750,1.876170
3751,1.875670
3752,1.875250
3753,1.875080
3754,1.874540
3755,1.874310
3756,1.873780
3757,1.873610
3758,1.873260
3759,1.872810
3760,1.872580
3761,1.872100
3762,1.871950
3763,1.871470
3764,1.871160
3765,1.870880
3766,1.870380
3767,1.870210
3768,1.869660
3769,1.869480
3770,1.869010
3771,1.868600
3772,1.868490
3773,1.868090
3774,1.867840
3775,1.867340
3776,1.867170
3777,1.866870
3778,1.866330
3779,1.865930
3780,1.865680
3781,1.865030
3782,1.864770
3783,1.864370
3784,1.863930
3785,1.863370
3786,1.863140
3787,1.862720
3788,1.862340
3789,1.861900
3790,1.861430
3791,1.861160
3792,1.860720
3793,1.860300
3794,1.859970
3795,1.859590
3796,1.859310
3797,1.858870
3798,1.858500
3799,1.858260
3800,1.857840
3801,1.857530
3802,1.857240
3803,1.856790
3804,1.856460
3805,1.856170
3806,1.855980
3807,1.855510
3808,1.855180
3809,1.854970
3810,1.854630
3811,1.854360
3812,1.854020
3813,1.853790
3814,1.853580
3815,1.853040
3816,1.852950
3817,1.852580
3818,1.852360
3819,1.852010
3820,1.851630
3821,1.851400
3822,1.851130
3823,1.850850
3824,1.850560
3825,1.850290
3826,1.850140
3827,1.849870
3828,1.849700
3829,1.849280
3830,1.849070
3831,1.848650
3832,1.848500
3833,1.848250
3834,1.847890
3835,1.847730
3836,1.847220
3837,1.847100
3838,1.846860
3839,1.846510
3840,1.846260
3841,1.845810
3842,1.845540
3843,1.845210
3844,1.845020
3845,1.844580
3846,1.844220
3847,1.843650
3848,1.843740
3849,1.843100
3850,1.842810
3851,1.842370
3852,1.841970
3853,1.841620
3854,1.841130
3855,1.840840
3856,1.840590
3857,1.840360
3858,1.840060
3859,1.839750
3860,1.839450
3861,1.839050
3862,1.838670
3863,1.838590
3864,1.838250
3865,1.837900
3866,1.837620
3867,1.837420
3868,1.837060
3869,1.836700
3870,1.836410
3871,1.836370
3872,1.835950
3873,1.835740
3874,1.835510
3875,1.835270
3876,1.834960
3877,1.834790
3878,1.834350
3879,1.834080
3880,1.833990
3881,1.833610
3882,1.833450
3883,1.833090
3884,1.832980
3885,1.832590
3886,1.832360
3887,1.832120
3888,1.831660
3889,1.831490
3890,1.831370
3891,1.831010
3892,1.830860
3893,1.830470
3894,1.830320
3895,1.829960
3896,1.829600
3897,1.829500
3898,1.829370
3899,1.829000
3900,1.828720
3901,1.828430
3902,1.828300
3903,1.828050
3904,1.827780
3905,1.827510
3906,1.827360
3907,1.826940
3908,1.826750
3909,1.826480
3910,1.826180
3911,1.826020
3912,1.825700
3913,1.825450
3914,1.825220
3915,1.824880
3916,1.824670
3917,1.824270
3918,1.823960
3919,1.823680
3920,1.823260
3921,1.823140
3922,1.822970
3923,1.822440
3924,1.822340
3925,1.822070
3926,1.821860
3927,1.821610
3928,1.821290
3929,1.821060
3930,1.820530
3931,1.820260
3932,1.820090
3933,1.819570
3934,1.819420
3935,1.819130
3936,1.818750
3937,1.818440
3938,1.818160
3939,1.817810
3940,1.817490
3941,1.817180
3942,1.816880
3943,1.816540
3944,1.816210
3945,1.815790
3946,1.815580
3947,1.815180
3948,1.814890
3949,1.814570
3950,1.814130
3951,1.813880
3952,1.813520
3953,1.813160
3954,1.812930
3955,1.812390
3956,1.812110
3957,1.811720
3958,1.811380
3959,1.811090
3960,1.810900
3961,1.810460
3962,1.810230
3963,1.809870
3964,1.809740
3965,1.809370
3966,1.809010
3967,1.808690
3968,1.808290
3969,1.807920
3970,1.807540
3971,1.807140
3972,1.806760
3973,1.806510
3974,1.806170
3975,1.805800
3976,1.805350
3977,1.804890
3978,1.804450
3979,1.804240
3980,1.803610
3981,1.803400
3982,1.803000
3983,1.802670
3984,1.802390
3985,1.802180
3986,1.801580
3987,1.801430
3988,1.801070
3989,1.800840
3990,1.800460
3991,1.800020
3992,1.799830
3993,1.799520
3994,1.799180
3995,1.798950
3996,1.798530
3997,1.798190
3998,1.797920
3999,1.797570
4000,1.797230
4001,1.796790
4002,1.796410
4003,1.795970
4004,1.795590
4005,1.795320
4006,1.794880
4007,1.794560
4008,1.794210
4009,1.793760
4010,1.793530
4011,1.793130
4012,1.792880
4013,1.792530
4014,1.792210
4015,1.791690
4016,1.791450
4017,1.791240
4018,1.790780
4019,1.790530
4020,1.790090
4021,1.789650
4022,1.789270
4023,1.788850
4024,1.788350
4025,1.788030
4026,1.787590
4027,1.787090
4028,1.786650
4029,1.786420
4030,1.785950
4031,1.785660
4032,1.785390
4033,1.784900
4034,1.784630
4035,1.784210
4036,1.783860
4037,1.783440
4038,1.783010
4039,1.782590
4040,1.782360
4041,1.781880
4042,1.781380
4043,1.781130
4044,1.780560
4045,1.780330
4046,1.779660
4047,1.779340
4048,1.778750
4049,1.778420
4050,1.778140
4051,1.777720
4052,1.777330
4053,1.777070
4054,1.776570
4055,1.776170
4056,1.775690
4057,1.775430
4058,1.774890
4059,1.774320
4060,1.773880
4061,1.773400
4062,1.772960
4063,1.772370
4064,1.771970
4065,1.771570
4066,1.770900
4067,1.770630
4068,1.770210
4069,1.769540
4070,1.769330
4071,1.768800
4072,1.768250
4073,1.767840
4074,1.767370
4075,1.767060
4076,1.766510
4077,1.766010
4078,1.765730
4079,1.765080
4080,1.764690
4081,1.764030
4082,1.763510
4083,1.763110
4084,1.762460
4085,1.761940
4086,1.761350
4087,1.760930
4088,1.760380
4089,1.759900
4090,1.759540
4091,1.758790
4092,1.758300
4093,1.757760
4094,1.757170
4095,1.756600
4096,1.756100
4097,1.755620
4098,1.754780
4099,1.754360
4100,1.753750
4101,1.753430
4102,1.752700
4103,1.752130
4104,1.751440
4105,1.750660
4106,1.750200
4107,1.749500
4108,1.748920
4109,1.748310
4110,1.747810
4111,1.747050
4112,1.746290
4113,1.745770
4114,1.744950
4115,1.744170
4116,1.743540
4117,1.742790
4118,1.742030
4119,1.741550
4120,1.740880
4121,1.740120
4122,1.739360
4123,1.738670
4124,1.737580
4125,1.736640
4126,1.735630
4127,1.734750
4128,1.733910
4129,1.733090
4130,1.732060
4131,1.731240
4132,1.730400
4133,1.729520
4134,1.728700
4135,1.727800
4136,1.727000
4137,1.726160
4138,1.725280
4139,1.724500
4140,1.723510
4141,1.722550
4142,1.721810
4143,1.720850
4144,1.720240
4145,1.719250
4146,1.718410
4147,1.717720
4148,1.716980
4149,1.716060
4150,1.715280
4151,1.714040
4152,1.712760
4153,1.711690
4154,1.710810
4155,1.709910
4156,1.709130
4157,1.708290
4158,1.707470
4159,1.706550
4160,1.705600
4161,1.704510
4162,1.703420
4163,1.702330
4164,1.700980
4165,1.700020
4166,1.699140
4167,1.698130
4168,1.697330
4169,1.696600
4170,1.695690
4171,1.694920
4172,1.694060
4173,1.693170
4174,1.692330
4175,1.691330
4176,1.690510
4177,1.689630
4178,1.689100
4179,1.687920
4180,1.687290
4181,1.686310
4182,1.685360
4183,1.684380
4184,1.683200
4185,1.682360
4186,1.681290
4187,1.680370
4188,1.679360
4189,1.678390
4190,1.677380
4191,1.676310
4192,1.675240
4193,1.674210
4194,1.673160
4195,1.672070
4196,1.670500
4197,1.669280
4198,1.667920
4199,1.667120
4200,1.665840
4201,1.664660
4202,1.663380
4203,1.662140
4204,1.660960
4205,1.659770
4206,1.659080
4207,1.658300
4208,1.657610
4209,1.657000
4210,1.656320
4211,1.655690
4212,1.655070
4213,1.654480
4214,1.653950
4215,1.653410
4216,1.652820
4217,1.652130
4218,1.651350
4219,1.650760
4220,1.650300
4221,1.649770
4222,1.649100
4223,1.648370
4224,1.647700
4225,1.647150
4226,1.646580
4227,1.646120
4228,1.645760
4229,1.645510
4230,1.645130
4231,1.644970
4232,1.644460
4233,1.644290
4234,1.644060
4235,1.643940
4236,1.643710
4237,1.643500
4238,1.643390
4239,1.643410
4240,1.643390
4241,1.643140
4242,1.642640
4243,1.642030
4244,1.641270
4245,1.640540
4246,1.639130
4247,1.637790
4248,1.636210
4249,1.634890
4250,1.634090
4251,1.633440
4252,1.633230
4253,1.633350
4254,1.633480
4255,1.633920
4256,1.634570
4257,1.635220
4258,1.636250
4259,1.637490
4260,1.638670
4261,1.640330
4262,1.641980
4263,1.643640
4264,1.645410
4265,1.647110
4266,1.649170
4267,1.651560
4268,1.654100
4269,1.656490
4270,1.658970
4271,1.661530
4272,1.664450
4273,1.667660
4274,1.670770
4275,1.673670
4276,1.676540
4277,1.679610
4278,1.682610
4279,1.685680
4280,1.688930
4281,1.692380
4282,1.695520
4283,1.698690
4284,1.701650
4285,1.705020
4286,1.708330
4287,1.711840
4288,1.714920
4289,1.717760
4290,1.720620
4291,1.723720
4292,1.726600
4293,1.729430
4294,1.732080
4295,1.735380
4296,1.737660
4297,1.740430
4298,1.742980
4299,1.745600
4300,1.748200
4301,1.750220
4302,1.752760
4303,1.755660
4304,1.757970
4305,1.760280
4306,1.762480
4307,1.765550
4308,1.767940
4309,1.770290
4310,1.772390
4311,1.774550
4312,1.776880
4313,1.779110
4314,1.781080
4315,1.783230
4316,1.785300
4317,1.787280
4318,1.789420
4319,1.791430
4320,1.793280
4321,1.795260
4322,1.797020
4323,1.798930
4324,1.800900
4325,1.802440
4326,1.803860
4327,1.805350
4328,1.807030
4329,1.808690
4330,1.810160
4331,1.811880
4332,1.813690
4333,1.815100
4334,1.816880
4335,1.818620
4336,1.820300
4337,1.821820
4338,1.823490
4339,1.824990
4340,1.826690
4341,1.828200
4342,1.829520
4343,1.831030
4344,1.832330
4345,1.833970
4346,1.835270
4347,1.836550
4348,1.837960
4349,1.838970
4350,1.840380
4351,1.841340
4352,1.842500
4353,1.843630
4354,1.844510
4355,1.845290
4356,1.846020
4357,1.846380
4358,1.846490
4359,1.847140
4360,1.847540
4361,1.847830
4362,1.848140
4363,1.848710
4364,1.849070
4365,1.849340
4366,1.849660
4367,1.849910
4368,1.850560
4369,1.850690
4370,1.850980
4371,1.851170
4372,1.851380
4373,1.851650
4374,1.851670
4375,1.851710
4376,1.851840
4377,1.851590
4378,1.851780
4379,1.851610
4380,1.852110
4381,1.852240
4382,1.858240
4383,1.854860
4384,1.854780
4385,1.854720
4386,1.854740
4387,1.854700
4388,1.854550
4389,1.854590
4390,1.854840
4391,1.854740
4392,1.855220
4393,1.854910
4394,1.854930
4395,1.855050
4396,1.854690
4397,1.854650
4398,1.854570
4399,1.854510
4400,1.854570
4401,1.854490
4402,1.854460
4403,1.854460
4404,1.854420
4405,1.854400
4406,1.854280
4407,1.854230
4408,1.854340
4409,1.854420
4410,1.854360
4411,1.854530
4412,1.854270
4413,1.854340
4414,1.854440
4415,1.854270
4416,1.854280
4417,1.854320
4418,1.854110
4419,1.854190
4420,1.854210
4421,1.854190
4422,1.854280
4423,1.854670
4424,1.854420
4425,1.854590
4426,1.854650
4427,1.854630
4428,1.854780
4429,1.854630
4430,1.854550
4431,1.854510
4432,1.854570
4433,1.854650
4434,1.854670
4435,1.854720
4436,1.854760
4437,1.854930
4438,1.854840
4439,1.854930
4440,1.855010
4441,1.854840
4442,1.855010
4443,1.854900
4444,1.854860
4445,1.854910
4446,1.854800
4447,1.854930
4448,1.855090
4449,1.854930
4450,1.854910
4451,1.855030
4452,1.854950
4453,1.854820
4454,1.855090
4455,1.855260
4456,1.855090
4457,1.855120
4458,1.855010
4459,1.855110
4460,1.855240
4461,1.855120
4462,1.855350
4463,1.855450
4464,1.855370
4465,1.855370
4466,1.855620
4467,1.855430
4468,1.855410
4469,1.855300
4470,1.855450
4471,1.855540
4472,1.855620
4473,1.855740
4474,1.855790
4475,1.855580
4476,1.855700
4477,1.855510
4478,1.855470
4479,1.855530
4480,1.855680
4481,1.857380
4482,1.857300
4483,1.857210
4484,1.857450
4485,1.857300
4486,1.857340
4487,1.857430
4488,1.857470
4489,1.857400
4490,1.857700
4491,1.857870
4492,1.857760
4493,1.857840
4494,1.857800
4495,1.857870
4496,1.858080
4497,1.858180
4498,1.858050
4499,1.857930
4500,1.857930
4501,1.858060
4502,1.858100
4503,1.858120
4504,1.858180
4505,1.858330
4506,1.858470
4507,1.858430
4508,1.858430
4509,1.858620
4510,1.858750
4511,1.858620
4512,1.858710
4513,1.858960
4514,1.858890
4515,1.858870
4516,1.859120
4517,1.859000
4518,1.859130
4519,1.859100
4520,1.859100
4521,1.859230
4522,1.859150
4523,1.859190
4524,1.859330
4525,1.858770
4526,1.858390
4527,1.858310
4528,1.858350
4529,1.858450
4530,1.858470
4531,1.858390
4532,1.858480
4533,1.858310
4534,1.858430
4535,1.858330
4536,1.858270
4537,1.858160
4538,1.858200
4539,1.858220
4540,1.858310
4541,1.858180
4542,1.858050
4543,1.858180
4544,1.858010
4545,1.858220
4546,1.858080
4547,1.858080
4548,1.857700
4549,1.857510
4550,1.857550
4551,1.857640
4552,1.857420
4553,1.857610
4554,1.858100
4555,1.862000
4556,1.866710
4557,1.866520
4558,1.866430
4559,1.866370
4560,1.866370
4561,1.866220
4562,1.866280
4563,1.866260
4564,1.866030
4565,1.866080
4566,1.865800
4567,1.865760
4568,1.865700
4569,1.865720
4570,1.865650
4571,1.865680
4572,1.865780
4573,1.865650
4574,1.865630
4575,1.865530
4576,1.865650
4577,1.865570
4578,1.865280
4579,1.865230
4580,1.865150
4581,1.865090
4582,1.864980
4583,1.865230
4584,1.865090
4585,1.865130
4586,1.865110
4587,1.865030
4588,1.864960
4589,1.864540
4590,1.863490
4591,1.863600
4592,1.863600
4593,1.863300
4594,1.863390
4595,1.863300
4596,1.863510
4597,1.863200
4598,1.863090
4599,1.862880
4600,1.863010
4601,1.862690
4602,1.862630
4603,1.862460
4604,1.862380
4605,1.862420
4606,1.862250
4607,1.862320
4608,1.862040
4609,1.862000
4610,1.862020
4611,1.861390
4612,1.861440
4613,1.861290
4614,1.861180
4615,1.860970
4616,1.860870
4617,1.860760
4618,1.860530
4619,1.860240
4620,1.860090
4621,1.860050
4622,1.859920
4623,1.859690
4624,1.859460
4625,1.859550
4626,1.859550
4627,1.859330
4628,1.858870
4629,1.858910
4630,1.858410
4631,1.858080
4632,1.857970
4633,1.857990
4634,1.857950
4635,1.857680
4636,1.857450
4637,1.857110
4638,1.856860
4639,1.856790
4640,1.856480
4641,1.856380
4642,1.856060
4643,1.855740
4644,1.855220
4645,1.854700
4646,1.854090
4647,1.853670
4648,1.853480
4649,1.853370
4650,1.853100
4651,1.852640
4652,1.852580
4653,1.852220
4654,1.851340
4655,1.851060
4656,1.850850
4657,1.850220
4658,1.849820
4659,1.849470
4660,1.848820
4661,1.848460
4662,1.847870
4663,1.847240
4664,1.846780
4665,1.846380
4666,1.846090
4667,1.845520
4668,1.845200
4669,1.844660
4670,1.844240
4671,1.843800
4672,1.843340
4673,1.842940
4674,1.842520
4675,1.841870
4676,1.841720
4677,1.841010
4678,1.840400
4679,1.840420
4680,1.839730
4681,1.839490
4682,1.839120
4683,1.838470
4684,1.837960
4685,1.837580
4686,1.837310
4687,1.836870
4688,1.836510
4689,1.836070
4690,1.835670
4691,1.835250
4692,1.834980
4693,1.834640
4694,1.834240
4695,1.833830
4696,1.833640
4697,1.833300
4698,1.832770
4699,1.832570
4700,1.832570
4701,1.832400
4702,1.832270
4703,1.832060
4704,1.831700
4705,1.831620
4706,1.831310
4707,1.831070
4708,1.831080
4709,1.831330
4710,1.831220
4711,1.831450
4712,1.831450
4713,1.831350
4714,1.831450
4715,1.831290
4716,1.831490
4717,1.831640
4718,1.829630
4719,1.829080
4720,1.829100
4721,1.829180
4722,1.829390
4723,1.829460
4724,1.829330
4725,1.829520
4726,1.829810
4727,1.829900
4728,1.829840
4729,1.830190
4730,1.830110
4731,1.829960
4732,1.830240
4733,1.830050
4734,1.830050
4735,1.829420
4736,1.829270
4737,1.829180
4738,1.829420
4739,1.829330
4740,1.829540
4741,1.829540
4742,1.829630
4743,1.829790
4744,1.829650
4745,1.829960
4746,1.829960
4747,1.829840
4748,1.830050
